      radius    pressure
  0.500000000000  1.709443086973
  0.500520833333  1.709435231759
  0.501041666667  1.709411666816
  0.501562500000  1.709372393289
  0.502083333333  1.709317412479
  0.502604166667  1.709246725849
  0.503125000000  1.709160335017
  0.503645833333  1.709058241761
  0.504166666667  1.708940448017
  0.504687500000  1.708806955881
  0.505208333333  1.708657767604
  0.505729166667  1.708492885602
  0.506250000000  1.708312312445
  0.506770833333  1.708116050864
  0.507291666667  1.707904103750
  0.507812500000  1.707676474153
  0.508333333333  1.707433165283
  0.508854166667  1.707174180508
  0.509375000000  1.706899523359
  0.509895833333  1.706609197524
  0.510416666667  1.706303206853
  0.510937500000  1.705981555354
  0.511458333333  1.705644247199
  0.511979166667  1.705291286716
  0.512500000000  1.704922678397
  0.513020833333  1.704538426892
  0.513541666667  1.704138537015
  0.514062500000  1.703723013736
  0.514583333333  1.703291862190
  0.515104166667  1.702845087672
  0.515625000000  1.702382695636
  0.516145833333  1.701904691700
  0.516666666667  1.701411081640
  0.517187500000  1.700901871396
  0.517708333333  1.700377067069
  0.518229166667  1.699836674919
  0.518750000000  1.699280701371
  0.519270833333  1.698709153008
  0.519791666667  1.698122036576
  0.520312500000  1.697519358984
  0.520833333333  1.696901127301
  0.521354166667  1.696267348758
  0.521875000000  1.695618030748
  0.522395833333  1.694953180826
  0.522916666667  1.694272806708
  0.523437500000  1.693576916272
  0.523958333333  1.692865517560
  0.524479166667  1.692138618773
  0.525000000000  1.691396228275
  0.525520833333  1.690638354594
  0.526041666667  1.689865006417
  0.526562500000  1.689076192595
  0.527083333333  1.688271922140
  0.527604166667  1.687452204227
  0.528125000000  1.686617048192
  0.528645833333  1.685766463534
  0.529166666667  1.684900459915
  0.529687500000  1.684019047157
  0.530208333333  1.683122235245
  0.530729166667  1.682210034327
  0.531250000000  1.681282454712
  0.531770833333  1.680339506872
  0.532291666667  1.679381201440
  0.532812500000  1.678407549212
  0.533333333333  1.677418561145
  0.533854166667  1.676414248361
  0.534375000000  1.675394622140
  0.534895833333  1.674359693928
  0.535416666667  1.673309475328
  0.535937500000  1.672243978111
  0.536458333333  1.671163214205
  0.536979166667  1.670067195703
  0.537500000000  1.668955934858
  0.538020833333  1.667829444085
  0.538541666667  1.666687735963
  0.539062500000  1.665530823230
  0.539583333333  1.664358718787
  0.540104166667  1.663171435696
  0.540625000000  1.661968987182
  0.541145833333  1.660751386630
  0.541666666667  1.659518647588
  0.542187500000  1.658270783764
  0.542708333333  1.657007809027
  0.543229166667  1.655729737410
  0.543750000000  1.654436583105
  0.544270833333  1.653128360466
  0.544791666667  1.651805084007
  0.545312500000  1.650466768404
  0.545833333333  1.649113428495
  0.546354166667  1.647745079277
  0.546875000000  1.646361735907
  0.547395833333  1.644963413707
  0.547916666667  1.643550128155
  0.548437500000  1.642121894892
  0.548958333333  1.640678729719
  0.549479166667  1.639220648597
  0.550000000000  1.637747667647
  0.550520833333  1.636259803152
  0.551041666667  1.634757071552
  0.551562500000  1.633239489449
  0.552083333333  1.631707073604
  0.552604166667  1.630159840940
  0.553125000000  1.628597808536
  0.553645833333  1.627020993632
  0.554166666667  1.625429413629
  0.554687500000  1.623823086086
  0.555208333333  1.622202028720
  0.555729166667  1.620566259408
  0.556250000000  1.618915796187
  0.556770833333  1.617250657250
  0.557291666667  1.615570860952
  0.557812500000  1.613876425805
  0.558333333333  1.612167370477
  0.558854166667  1.610443713799
  0.559375000000  1.608705474756
  0.559895833333  1.606952672492
  0.560416666667  1.605185326310
  0.560937500000  1.603403455670
  0.561458333333  1.601607080188
  0.561979166667  1.599796219640
  0.562500000000  1.597970893957
  0.563020833333  1.596131123229
  0.563541666667  1.594276927699
  0.564062500000  1.592408327772
  0.564583333333  1.590525344006
  0.565104166667  1.588627997115
  0.565625000000  1.586716307972
  0.566145833333  1.584790297604
  0.566666666667  1.582849971200
  0.567187500000  1.580895381988
  0.567708333333  1.578926535576
  0.568229166667  1.576943453615
  0.568750000000  1.574946157908
  0.569270833333  1.572934670414
  0.569791666667  1.570909013249
  0.570312500000  1.568869208680
  0.570833333333  1.566815279131
  0.571354166667  1.564747247178
  0.571875000000  1.562665135553
  0.572395833333  1.560568967141
  0.572916666667  1.558458764980
  0.573437500000  1.556334552261
  0.573958333333  1.554196352330
  0.574479166667  1.552044188684
  0.575000000000  1.549878084974
  0.575520833333  1.547698065003
  0.576041666667  1.545504152726
  0.576562500000  1.543296372250
  0.577083333333  1.541074747835
  0.577604166667  1.538839303891
  0.578125000000  1.536590064980
  0.578645833333  1.534327055816
  0.579166666667  1.532050301262
  0.579687500000  1.529759826335
  0.580208333333  1.527455656198
  0.580729166667  1.525137816168
  0.581250000000  1.522806331711
  0.581770833333  1.520461228441
  0.582291666667  1.518102532124
  0.582812500000  1.515730268673
  0.583333333333  1.513344464151
  0.583854166667  1.510945144771
  0.584375000000  1.508532336892
  0.584895833333  1.506106067023
  0.585416666667  1.503666361820
  0.585937500000  1.501213248088
  0.586458333333  1.498746752779
  0.586979166667  1.496266902991
  0.587500000000  1.493773725969
  0.588020833333  1.491267249108
  0.588541666667  1.488747499944
  0.589062500000  1.486214506164
  0.589583333333  1.483668295598
  0.590104166667  1.481108896222
  0.590625000000  1.478536336159
  0.591145833333  1.475950643674
  0.591666666667  1.473351847180
  0.592187500000  1.470739975231
  0.592708333333  1.468115056529
  0.593229166667  1.465477119917
  0.593750000000  1.462826194381
  0.594270833333  1.460162309054
  0.594791666667  1.457485493209
  0.595312500000  1.454795776262
  0.595833333333  1.452093187771
  0.596354166667  1.449377757438
  0.596875000000  1.446649515106
  0.597395833333  1.443908490758
  0.597916666667  1.441154714519
  0.598437500000  1.438388216656
  0.598958333333  1.435609027576
  0.599479166667  1.432817177825
  0.600000000000  1.430012698090
  0.600520833333  1.427195619198
  0.601041666667  1.424365972114
  0.601562500000  1.421523787943
  0.602083333333  1.418669097928
  0.602604166667  1.415801933451
  0.603125000000  1.412922326031
  0.603645833333  1.410030307325
  0.604166666667  1.407125909129
  0.604687500000  1.404209163373
  0.605208333333  1.401280102126
  0.605729166667  1.398338757591
  0.606250000000  1.395385162110
  0.606770833333  1.392419348159
  0.607291666667  1.389441348349
  0.607812500000  1.386451195426
  0.608333333333  1.383448922270
  0.608854166667  1.380434561898
  0.609375000000  1.377408147458
  0.609895833333  1.374369712233
  0.610416666667  1.371319289638
  0.610937500000  1.368256913222
  0.611458333333  1.365182616665
  0.611979166667  1.362096433782
  0.612500000000  1.358998398517
  0.613020833333  1.355888544945
  0.613541666667  1.352766907275
  0.614062500000  1.349633519844
  0.614583333333  1.346488417121
  0.615104166667  1.343331633703
  0.615625000000  1.340163204318
  0.616145833333  1.336983163823
  0.616666666667  1.333791547203
  0.617187500000  1.330588389572
  0.617708333333  1.327373726172
  0.618229166667  1.324147592374
  0.618750000000  1.320910023672
  0.619270833333  1.317661055692
  0.619791666667  1.314400724184
  0.620312500000  1.311129065023
  0.620833333333  1.307846114212
  0.621354166667  1.304551907877
  0.621875000000  1.301246482271
  0.622395833333  1.297929873772
  0.622916666667  1.294602118878
  0.623437500000  1.291263254215
  0.623958333333  1.287913316531
  0.624479166667  1.284552342697
  0.625000000000  1.281180369704
  0.625520833333  1.277797434670
  0.626041666667  1.274403574830
  0.626562500000  1.270998827543
  0.627083333333  1.267583230288
  0.627604166667  1.264156820665
  0.628125000000  1.260719636392
  0.628645833333  1.257271715310
  0.629166666667  1.253813095377
  0.629687500000  1.250343814669
  0.630208333333  1.246863911382
  0.630729166667  1.243373423830
  0.631250000000  1.239872390443
  0.631770833333  1.236360849769
  0.632291666667  1.232838840473
  0.632812500000  1.229306401337
  0.633333333333  1.225763571255
  0.633854166667  1.222210389241
  0.634375000000  1.218646894421
  0.634895833333  1.215073126036
  0.635416666667  1.211489123442
  0.635937500000  1.207894926108
  0.636458333333  1.204290573616
  0.636979166667  1.200676105660
  0.637500000000  1.197051562048
  0.638020833333  1.193416982698
  0.638541666667  1.189772407641
  0.639062500000  1.186117877018
  0.639583333333  1.182453431081
  0.640104166667  1.178779110191
  0.640625000000  1.175094954819
  0.641145833333  1.171401005546
  0.641666666667  1.167697303061
  0.642187500000  1.163983888160
  0.642708333333  1.160260801750
  0.643229166667  1.156528084841
  0.643750000000  1.152785778552
  0.644270833333  1.149033924110
  0.644791666667  1.145272562845
  0.645312500000  1.141501736194
  0.645833333333  1.137721485698
  0.646354166667  1.133931853003
  0.646875000000  1.130132879859
  0.647395833333  1.126324608120
  0.647916666667  1.122507079742
  0.648437500000  1.118680336784
  0.648958333333  1.114844421408
  0.649479166667  1.110999375876
  0.650000000000  1.107145242551
  0.650520833333  1.103282063900
  0.651041666667  1.099409882485
  0.651562500000  1.095528740973
  0.652083333333  1.091638682125
  0.652604166667  1.087739748806
  0.653125000000  1.083831983974
  0.653645833333  1.079915430689
  0.654166666667  1.075990132106
  0.654687500000  1.072056131477
  0.655208333333  1.068113472150
  0.655729166667  1.064162197570
  0.656250000000  1.060202351277
  0.656770833333  1.056233976904
  0.657291666667  1.052257118180
  0.657812500000  1.048271818928
  0.658333333333  1.044278123062
  0.658854166667  1.040276074592
  0.659375000000  1.036265717617
  0.659895833333  1.032247096330
  0.660416666667  1.028220255015
  0.660937500000  1.024185238045
  0.661458333333  1.020142089886
  0.661979166667  1.016090855090
  0.662500000000  1.012031578303
  0.663020833333  1.007964304255
  0.663541666667  1.003889077767
  0.664062500000  0.999805943747
  0.664583333333  0.995714947189
  0.665104166667  0.991616133176
  0.665625000000  0.987509546875
  0.666145833333  0.983395233539
  0.666666666667  0.979273238507
  0.667187500000  0.975143607201
  0.667708333333  0.971006385128
  0.668229166667  0.966861617880
  0.668750000000  0.962709351128
  0.669270833333  0.958549630630
  0.669791666667  0.954382502221
  0.670312500000  0.950208011822
  0.670833333333  0.946026205433
  0.671354166667  0.941837129133
  0.671875000000  0.937640829082
  0.672395833333  0.933437351520
  0.672916666667  0.929226742764
  0.673437500000  0.925009049211
  0.673958333333  0.920784317334
  0.674479166667  0.916552593684
  0.675000000000  0.912313924889
  0.675520833333  0.908068357651
  0.676041666667  0.903815938750
  0.676562500000  0.899556715039
  0.677083333333  0.895290733446
  0.677604166667  0.891018040974
  0.678125000000  0.886738684697
  0.678645833333  0.882452711764
  0.679166666667  0.878160169395
  0.679687500000  0.873861104882
  0.680208333333  0.869555565587
  0.680729166667  0.865243598945
  0.681250000000  0.860925252459
  0.681770833333  0.856600573702
  0.682291666667  0.852269610315
  0.682812500000  0.847932410009
  0.683333333333  0.843589020563
  0.683854166667  0.839239489820
  0.684375000000  0.834883865694
  0.684895833333  0.830522196162
  0.685416666667  0.826154529267
  0.685937500000  0.821780913119
  0.686458333333  0.817401395891
  0.686979166667  0.813016025818
  0.687500000000  0.808624851202
  0.688020833333  0.804227920406
  0.688541666667  0.799825281854
  0.689062500000  0.795416984033
  0.689583333333  0.791003075491
  0.690104166667  0.786583604837
  0.690625000000  0.782158620738
  0.691145833333  0.777728171923
  0.691666666667  0.773292307176
  0.692187500000  0.768851075344
  0.692708333333  0.764404525328
  0.693229166667  0.759952706088
  0.693750000000  0.755495666638
  0.694270833333  0.751033456052
  0.694791666667  0.746566123455
  0.695312500000  0.742093718030
  0.695833333333  0.737616289013
  0.696354166667  0.733133885693
  0.696875000000  0.728646557412
  0.697395833333  0.724154353567
  0.697916666667  0.719657323604
  0.698437500000  0.715155517021
  0.698958333333  0.710648983367
  0.699479166667  0.706137772242
  0.700000000000  0.701621933295
  0.700520833333  0.697101516222
  0.701041666667  0.692576570771
  0.701562500000  0.688047146734
  0.702083333333  0.683513293954
  0.702604166667  0.678975062319
  0.703125000000  0.674432501762
  0.703645833333  0.669885662262
  0.704166666667  0.665334593844
  0.704687500000  0.660779346576
  0.705208333333  0.656219970572
  0.705729166667  0.651656515985
  0.706250000000  0.647089033015
  0.706770833333  0.642517571901
  0.707291666667  0.637942182925
  0.707812500000  0.633362916408
  0.708333333333  0.628779822713
  0.708854166667  0.624192952242
  0.709375000000  0.619602355435
  0.709895833333  0.615008082773
  0.710416666667  0.610410184771
  0.710937500000  0.605808711984
  0.711458333333  0.601203715004
  0.711979166667  0.596595244456
  0.712500000000  0.591983351004
  0.713020833333  0.587368085344
  0.713541666667  0.582749498209
  0.714062500000  0.578127640362
  0.714583333333  0.573502562603
  0.715104166667  0.568874315762
  0.715625000000  0.564242950701
  0.716145833333  0.559608518313
  0.716666666667  0.554971069524
  0.717187500000  0.550330655288
  0.717708333333  0.545687326588
  0.718229166667  0.541041134438
  0.718750000000  0.536392129877
  0.719270833333  0.531740363975
  0.719791666667  0.527085887827
  0.720312500000  0.522428752556
  0.720833333333  0.517769009309
  0.721354166667  0.513106709259
  0.721875000000  0.508441903605
  0.722395833333  0.503774643568
  0.722916666667  0.499104980393
  0.723437500000  0.494432965348
  0.723958333333  0.489758649725
  0.724479166667  0.485082084834
  0.725000000000  0.480403322008
  0.725520833333  0.475722412602
  0.726041666667  0.471039407988
  0.726562500000  0.466354359558
  0.727083333333  0.461667318723
  0.727604166667  0.456978336913
  0.728125000000  0.452287465574
  0.728645833333  0.447594756168
  0.729166666667  0.442900260175
  0.729687500000  0.438204029089
  0.730208333333  0.433506114422
  0.730729166667  0.428806567695
  0.731250000000  0.424105440448
  0.731770833333  0.419402784231
  0.732291666667  0.414698650607
  0.732812500000  0.409993091152
  0.733333333333  0.405286157453
  0.733854166667  0.400577901106
  0.734375000000  0.395868373720
  0.734895833333  0.391157626911
  0.735416666667  0.386445712304
  0.735937500000  0.381732681535
  0.736458333333  0.377018586243
  0.736979166667  0.372303478078
  0.737500000000  0.367587408695
  0.738020833333  0.362870429755
  0.738541666667  0.358152592924
  0.739062500000  0.353433949872
  0.739583333333  0.348714552275
  0.740104166667  0.343994451809
  0.740625000000  0.339273700156
  0.741145833333  0.334552348998
  0.741666666667  0.329830450020
  0.742187500000  0.325108054908
  0.742708333333  0.320385215347
  0.743229166667  0.315661983021
  0.743750000000  0.310938409617
  0.744270833333  0.306214546816
  0.744791666667  0.301490446299
  0.745312500000  0.296766159744
  0.745833333333  0.292041738827
  0.746354166667  0.287317235217
  0.746875000000  0.282592700580
  0.747395833333  0.277868186579
  0.747916666667  0.273143744867
  0.748437500000  0.268419427094
  0.748958333333  0.263695284901
  0.749479166667  0.258971369922
  0.750000000000  0.254247733783
  0.750520833333  0.249524428101
  0.751041666667  0.244801504484
  0.751562500000  0.240079014528
  0.752083333333  0.235357009822
  0.752604166667  0.230635541939
  0.753125000000  0.225914662444
  0.753645833333  0.221194422888
  0.754166666667  0.216474874808
  0.754687500000  0.211756069729
  0.755208333333  0.207038059161
  0.755729166667  0.202320894598
  0.756250000000  0.197604627520
  0.756770833333  0.192889309390
  0.757291666667  0.188174991654
  0.757812500000  0.183461725741
  0.758333333333  0.178749563062
  0.758854166667  0.174038555010
  0.759375000000  0.169328752957
  0.759895833333  0.164620208257
  0.760416666667  0.159912972243
  0.760937500000  0.155207096227
  0.761458333333  0.150502631498
  0.761979166667  0.145799629326
  0.762500000000  0.141098140954
  0.763020833333  0.136398217605
  0.763541666667  0.131699910475
  0.764062500000  0.127003270739
  0.764583333333  0.122308349544
  0.765104166667  0.117615198010
  0.765625000000  0.112923867235
  0.766145833333  0.108234408284
  0.766666666667  0.103546872200
  0.767187500000  0.098861309994
  0.767708333333  0.094177772649
  0.768229166667  0.089496311119
  0.768750000000  0.084816976328
  0.769270833333  0.080139819169
  0.769791666667  0.075464890502
  0.770312500000  0.070792241158
  0.770833333333  0.066121921933
  0.771354166667  0.061453983592
  0.771875000000  0.056788476865
  0.772395833333  0.052125452448
  0.772916666667  0.047464961001
  0.773437500000  0.042807053151
  0.773958333333  0.038151779486
  0.774479166667  0.033499190559
  0.775000000000  0.028849336886
  0.775520833333  0.024202268943
  0.776041666667  0.019558037170
  0.776562500000  0.014916691967
  0.777083333333  0.010278283692
  0.777604166667  0.005642862667
  0.778125000000  0.001010479170
  0.778645833333 -0.003618816562
  0.779166666667 -0.008244974333
  0.779687500000 -0.012867943992
  0.780208333333 -0.017487675428
  0.780729166667 -0.022104118577
  0.781250000000 -0.026717223417
  0.781770833333 -0.031326939972
  0.782291666667 -0.035933218313
  0.782812500000 -0.040536008554
  0.783333333333 -0.045135260860
  0.783854166667 -0.049730925441
  0.784375000000 -0.054322952554
  0.784895833333 -0.058911292506
  0.785416666667 -0.063495895654
  0.785937500000 -0.068076712402
  0.786458333333 -0.072653693209
  0.786979166667 -0.077226788579
  0.787500000000 -0.081795949073
  0.788020833333 -0.086361125300
  0.788541666667 -0.090922267925
  0.789062500000 -0.095479327663
  0.789583333333 -0.100032255286
  0.790104166667 -0.104581001618
  0.790625000000 -0.109125517540
  0.791145833333 -0.113665753986
  0.791666666667 -0.118201661949
  0.792187500000 -0.122733192478
  0.792708333333 -0.127260296678
  0.793229166667 -0.131782925713
  0.793750000000 -0.136301030805
  0.794270833333 -0.140814563236
  0.794791666667 -0.145323474347
  0.795312500000 -0.149827715539
  0.795833333333 -0.154327238275
  0.796354166667 -0.158821994077
  0.796875000000 -0.163311934530
  0.797395833333 -0.167797011284
  0.797916666667 -0.172277176049
  0.798437500000 -0.176752380599
  0.798958333333 -0.181222576773
  0.799479166667 -0.185687716476
  0.800000000000 -0.190147751676
  0.800520833333 -0.194602634407
  0.801041666667 -0.199052316773
  0.801562500000 -0.203496750940
  0.802083333333 -0.207935889146
  0.802604166667 -0.212369683694
  0.803125000000 -0.216798086958
  0.803645833333 -0.221221051380
  0.804166666667 -0.225638529472
  0.804687500000 -0.230050473818
  0.805208333333 -0.234456837071
  0.805729166667 -0.238857571955
  0.806250000000 -0.243252631270
  0.806770833333 -0.247641967884
  0.807291666667 -0.252025534742
  0.807812500000 -0.256403284859
  0.808333333333 -0.260775171328
  0.808854166667 -0.265141147315
  0.809375000000 -0.269501166062
  0.809895833333 -0.273855180887
  0.810416666667 -0.278203145184
  0.810937500000 -0.282545012423
  0.811458333333 -0.286880736156
  0.811979166667 -0.291210270008
  0.812500000000 -0.295533567685
  0.813020833333 -0.299850582974
  0.813541666667 -0.304161269739
  0.814062500000 -0.308465581925
  0.814583333333 -0.312763473560
