      radius    pressure
  0.500000000000 -1.736943520256
  0.500625000000 -1.736892077965
  0.501250000000 -1.736737821710
  0.501875000000 -1.736480861618
  0.502500000000 -1.736121313551
  0.503125000000 -1.735659299102
  0.503750000000 -1.735094945581
  0.504375000000 -1.734428386012
  0.505000000000 -1.733659759117
  0.505625000000 -1.732789209315
  0.506250000000 -1.731816886705
  0.506875000000 -1.730742947060
  0.507500000000 -1.729567551815
  0.508125000000 -1.728290868056
  0.508750000000 -1.726913068510
  0.509375000000 -1.725434331533
  0.510000000000 -1.723854841097
  0.510625000000 -1.722174786781
  0.511250000000 -1.720394363755
  0.511875000000 -1.718513772769
  0.512500000000 -1.716533220140
  0.513125000000 -1.714452917739
  0.513750000000 -1.712273082974
  0.514375000000 -1.709993938781
  0.515000000000 -1.707615713605
  0.515625000000 -1.705138641388
  0.516250000000 -1.702562961553
  0.516875000000 -1.699888918988
  0.517500000000 -1.697116764032
  0.518125000000 -1.694246752456
  0.518750000000 -1.691279145450
  0.519375000000 -1.688214209603
  0.520000000000 -1.685052216890
  0.520625000000 -1.681793444650
  0.521250000000 -1.678438175573
  0.521875000000 -1.674986697676
  0.522500000000 -1.671439304292
  0.523125000000 -1.667796294046
  0.523750000000 -1.664057970838
  0.524375000000 -1.660224643824
  0.525000000000 -1.656296627395
  0.525625000000 -1.652274241160
  0.526250000000 -1.648157809921
  0.526875000000 -1.643947663659
  0.527500000000 -1.639644137506
  0.528125000000 -1.635247571732
  0.528750000000 -1.630758311716
  0.529375000000 -1.626176707928
  0.530000000000 -1.621503115907
  0.530625000000 -1.616737896239
  0.531250000000 -1.611881414533
  0.531875000000 -1.606934041399
  0.532500000000 -1.601896152423
  0.533125000000 -1.596768128149
  0.533750000000 -1.591550354048
  0.534375000000 -1.586243220499
  0.535000000000 -1.580847122762
  0.535625000000 -1.575362460955
  0.536250000000 -1.569789640029
  0.536875000000 -1.564129069742
  0.537500000000 -1.558381164632
  0.538125000000 -1.552546343997
  0.538750000000 -1.546625031861
  0.539375000000 -1.540617656954
  0.540000000000 -1.534524652684
  0.540625000000 -1.528346457106
  0.541250000000 -1.522083512900
  0.541875000000 -1.515736267344
  0.542500000000 -1.509305172280
  0.543125000000 -1.502790684092
  0.543750000000 -1.496193263678
  0.544375000000 -1.489513376415
  0.545000000000 -1.482751492138
  0.545625000000 -1.475908085107
  0.546250000000 -1.468983633979
  0.546875000000 -1.461978621776
  0.547500000000 -1.454893535860
  0.548125000000 -1.447728867897
  0.548750000000 -1.440485113834
  0.549375000000 -1.433162773861
  0.550000000000 -1.425762352385
  0.550625000000 -1.418284357997
  0.551250000000 -1.410729303443
  0.551875000000 -1.403097705590
  0.552500000000 -1.395390085394
  0.553125000000 -1.387606967872
  0.553750000000 -1.379748882064
  0.554375000000 -1.371816361006
  0.555000000000 -1.363809941695
  0.555625000000 -1.355730165053
  0.556250000000 -1.347577575901
  0.556875000000 -1.339352722919
  0.557500000000 -1.331056158617
  0.558125000000 -1.322688439297
  0.558750000000 -1.314250125022
  0.559375000000 -1.305741779583
  0.560000000000 -1.297163970459
  0.560625000000 -1.288517268791
  0.561250000000 -1.279802249336
  0.561875000000 -1.271019490444
  0.562500000000 -1.262169574012
  0.563125000000 -1.253253085455
  0.563750000000 -1.244270613671
  0.564375000000 -1.235222751000
  0.565000000000 -1.226110093190
  0.565625000000 -1.216933239364
  0.566250000000 -1.207692791979
  0.566875000000 -1.198389356792
  0.567500000000 -1.189023542823
  0.568125000000 -1.179595962317
  0.568750000000 -1.170107230707
  0.569375000000 -1.160557966577
  0.570000000000 -1.150948791624
  0.570625000000 -1.141280330621
  0.571250000000 -1.131553211379
  0.571875000000 -1.121768064708
  0.572500000000 -1.111925524378
  0.573125000000 -1.102026227086
  0.573750000000 -1.092070812407
  0.574375000000 -1.082059922768
  0.575000000000 -1.071994203398
  0.575625000000 -1.061874302297
  0.576250000000 -1.051700870189
  0.576875000000 -1.041474560491
  0.577500000000 -1.031196029269
  0.578125000000 -1.020865935195
  0.578750000000 -1.010484939517
  0.579375000000 -1.000053706007
  0.580000000000 -0.989572900931
  0.580625000000 -0.979043193003
  0.581250000000 -0.968465253346
  0.581875000000 -0.957839755453
  0.582500000000 -0.947167375143
  0.583125000000 -0.936448790526
  0.583750000000 -0.925684681955
  0.584375000000 -0.914875731991
  0.585000000000 -0.904022625356
  0.585625000000 -0.893126048899
  0.586250000000 -0.882186691548
  0.586875000000 -0.871205244272
  0.587500000000 -0.860182400040
  0.588125000000 -0.849118853776
  0.588750000000 -0.838015302320
  0.589375000000 -0.826872444385
  0.590000000000 -0.815690980516
  0.590625000000 -0.804471613047
  0.591250000000 -0.793215046058
  0.591875000000 -0.781921985334
  0.592500000000 -0.770593138323
  0.593125000000 -0.759229214093
  0.593750000000 -0.747830923287
  0.594375000000 -0.736398978086
  0.595000000000 -0.724934092160
  0.595625000000 -0.713436980631
  0.596250000000 -0.701908360024
  0.596875000000 -0.690348948231
  0.597500000000 -0.678759464460
  0.598125000000 -0.667140629201
  0.598750000000 -0.655493164175
  0.599375000000 -0.643817792295
  0.600000000000 -0.632115237622
  0.600625000000 -0.620386225321
  0.601250000000 -0.608631481617
  0.601875000000 -0.596851733755
  0.602500000000 -0.585047709953
  0.603125000000 -0.573220139360
  0.603750000000 -0.561369752011
  0.604375000000 -0.549497278786
  0.605000000000 -0.537603451365
  0.605625000000 -0.525689002183
  0.606250000000 -0.513754664389
  0.606875000000 -0.501801171801
  0.607500000000 -0.489829258860
  0.608125000000 -0.477839660591
  0.608750000000 -0.465833112555
  0.609375000000 -0.453810350809
  0.610000000000 -0.441772111857
  0.610625000000 -0.429719132611
  0.611250000000 -0.417652150346
  0.611875000000 -0.405571902654
  0.612500000000 -0.393479127402
  0.613125000000 -0.381374562688
  0.613750000000 -0.369258946798
  0.614375000000 -0.357133018159
  0.615000000000 -0.344997515298
  0.615625000000 -0.332853176799
  0.616250000000 -0.320700741256
  0.616875000000 -0.308540947231
  0.617500000000 -0.296374533210
  0.618125000000 -0.284202237559
  0.618750000000 -0.272024798481
  0.619375000000 -0.259842953972
  0.620000000000 -0.247657441776
  0.620625000000 -0.235468999343
  0.621250000000 -0.223278363784
  0.621875000000 -0.211086271829
  0.622500000000 -0.198893459782
  0.623125000000 -0.186700663478
  0.623750000000 -0.174508618239
  0.624375000000 -0.162318058834
  0.625000000000 -0.150129719428
  0.625625000000 -0.137944333546
  0.626250000000 -0.125762634028
  0.626875000000 -0.113585352982
  0.627500000000 -0.101413221746
  0.628125000000 -0.089246970841
  0.628750000000 -0.077087329931
  0.629375000000 -0.064935027777
  0.630000000000 -0.052790792197
  0.630625000000 -0.040655350020
  0.631250000000 -0.028529427046
  0.631875000000 -0.016413748003
  0.632500000000 -0.004309036501
  0.633125000000  0.007783985004
  0.633750000000  0.019864595259
  0.634375000000  0.031932074253
  0.635000000000  0.043985703261
  0.635625000000  0.056024764882
  0.636250000000  0.068048543089
  0.636875000000  0.080056323261
  0.637500000000  0.092047392233
  0.638125000000  0.104021038336
  0.638750000000  0.115976551434
  0.639375000000  0.127913222972
  0.640000000000  0.139830346013
  0.640625000000  0.151727215283
  0.641250000000  0.163603127206
  0.641875000000  0.175457379954
  0.642500000000  0.187289273481
  0.643125000000  0.199098109565
  0.643750000000  0.210883191852
  0.644375000000  0.222643825893
  0.645000000000  0.234379319188
  0.645625000000  0.246088981222
  0.646250000000  0.257772123509
  0.646875000000  0.269428059629
  0.647500000000  0.281056105273
  0.648125000000  0.292655578277
  0.648750000000  0.304225798663
  0.649375000000  0.315766088682
  0.650000000000  0.327275772851
  0.650625000000  0.338754177990
  0.651250000000  0.350200633265
  0.651875000000  0.361614470225
  0.652500000000  0.372995022841
  0.653125000000  0.384341627544
  0.653750000000  0.395653623264
  0.654375000000  0.406930351469
  0.655000000000  0.418171156202
  0.655625000000  0.429375384119
  0.656250000000  0.440542384527
  0.656875000000  0.451671509423
  0.657500000000  0.462762113527
  0.658125000000  0.473813554326
  0.658750000000  0.484825192104
  0.659375000000  0.495796389983
  0.660000000000  0.506726513962
  0.660625000000  0.517614932946
  0.661250000000  0.528461018788
  0.661875000000  0.539264146325
  0.662500000000  0.550023693412
  0.663125000000  0.560739040958
  0.663750000000  0.571409572962
  0.664375000000  0.582034676549
  0.665000000000  0.592613742003
  0.665625000000  0.603146162805
  0.666250000000  0.613631335665
  0.666875000000  0.624068660557
  0.667500000000  0.634457540755
  0.668125000000  0.644797382865
  0.668750000000  0.655087596861
  0.669375000000  0.665327596115
  0.670000000000  0.675516797436
  0.670625000000  0.685654621097
  0.671250000000  0.695740490874
  0.671875000000  0.705773834073
  0.672500000000  0.715754081567
  0.673125000000  0.725680667827
  0.673750000000  0.735553030953
  0.674375000000  0.745370612706
  0.675000000000  0.755132858541
  0.675625000000  0.764839217638
  0.676250000000  0.774489142933
  0.676875000000  0.784082091146
  0.677500000000  0.793617522818
  0.678125000000  0.803094902335
  0.678750000000  0.812513697963
  0.679375000000  0.821873381873
  0.680000000000  0.831173430177
  0.680625000000  0.840413322951
  0.681250000000  0.849592544269
  0.681875000000  0.858710582230
  0.682500000000  0.867766928986
  0.683125000000  0.876761080770
  0.683750000000  0.885692537928
  0.684375000000  0.894560804944
  0.685000000000  0.903365390464
  0.685625000000  0.912105807332
  0.686250000000  0.920781572610
  0.686875000000  0.929392207607
  0.687500000000  0.937937237907
  0.688125000000  0.946416193393
  0.688750000000  0.954828608275
  0.689375000000  0.963174021113
  0.690000000000  0.971451974847
  0.690625000000  0.979662016817
  0.691250000000  0.987803698793
  0.691875000000  0.995876576996
  0.692500000000  1.003880212122
  0.693125000000  1.011814169370
  0.693750000000  1.019678018462
  0.694375000000  1.027471333669
  0.695000000000  1.035193693833
  0.695625000000  1.042844682390
  0.696250000000  1.050423887391
  0.696875000000  1.057930901531
  0.697500000000  1.065365322161
  0.698125000000  1.072726751318
  0.698750000000  1.080014795745
  0.699375000000  1.087229066907
  0.700000000000  1.094369181018
  0.700625000000  1.101434759061
  0.701250000000  1.108425426803
  0.701875000000  1.115340814822
  0.702500000000  1.122180558523
  0.703125000000  1.128944298156
  0.703750000000  1.135631678838
  0.704375000000  1.142242350572
  0.705000000000  1.148775968264
  0.705625000000  1.155232191740
  0.706250000000  1.161610685768
  0.706875000000  1.167911120071
  0.707500000000  1.174133169348
  0.708125000000  1.180276513287
  0.708750000000  1.186340836587
  0.709375000000  1.192325828970
  0.710000000000  1.198231185199
  0.710625000000  1.204056605092
  0.711250000000  1.209801793540
  0.711875000000  1.215466460519
  0.712500000000  1.221050321110
  0.713125000000  1.226553095506
  0.713750000000  1.231974509033
  0.714375000000  1.237314292159
  0.715000000000  1.242572180511
  0.715625000000  1.247747914887
  0.716250000000  1.252841241267
  0.716875000000  1.257851910828
  0.717500000000  1.262779679957
  0.718125000000  1.267624310260
  0.718750000000  1.272385568574
  0.719375000000  1.277063226980
  0.720000000000  1.281657062816
  0.720625000000  1.286166858679
  0.721250000000  1.290592402448
  0.721875000000  1.294933487281
  0.722500000000  1.299189911636
  0.723125000000  1.303361479271
  0.723750000000  1.307447999259
  0.724375000000  1.311449285996
  0.725000000000  1.315365159206
  0.725625000000  1.319195443951
  0.726250000000  1.322939970642
  0.726875000000  1.326598575041
  0.727500000000  1.330171098270
  0.728125000000  1.333657386818
  0.728750000000  1.337057292548
  0.729375000000  1.340370672704
  0.730000000000  1.343597389912
  0.730625000000  1.346737312191
  0.731250000000  1.349790312955
  0.731875000000  1.352756271017
  0.732500000000  1.355635070596
  0.733125000000  1.358426601320
  0.733750000000  1.361130758229
  0.734375000000  1.363747441779
  0.735000000000  1.366276557845
  0.735625000000  1.368718017725
  0.736250000000  1.371071738138
  0.736875000000  1.373337641233
  0.737500000000  1.375515654584
  0.738125000000  1.377605711197
  0.738750000000  1.379607749506
  0.739375000000  1.381521713378
  0.740000000000  1.383347552111
  0.740625000000  1.385085220435
  0.741250000000  1.386734678511
  0.741875000000  1.388295891932
  0.742500000000  1.389768831720
  0.743125000000  1.391153474325
  0.743750000000  1.392449801627
  0.744375000000  1.393657800930
  0.745000000000  1.394777464960
  0.745625000000  1.395808791865
  0.746250000000  1.396751785210
  0.746875000000  1.397606453975
  0.747500000000  1.398372812551
  0.748125000000  1.399050880736
  0.748750000000  1.399640683729
  0.749375000000  1.400142252131
  0.750000000000  1.400555621934
  0.750625000000  1.400880834519
  0.751250000000  1.401117936649
  0.751875000000  1.401266980465
  0.752500000000  1.401328023480
  0.753125000000  1.401301128568
  0.753750000000  1.401186363964
  0.754375000000  1.400983803251
  0.755000000000  1.400693525357
  0.755625000000  1.400315614543
  0.756250000000  1.399850160399
  0.756875000000  1.399297257833
  0.757500000000  1.398657007062
  0.758125000000  1.397929513605
  0.758750000000  1.397114888273
  0.759375000000  1.396213247158
  0.760000000000  1.395224711623
  0.760625000000  1.394149408293
  0.761250000000  1.392987469045
  0.761875000000  1.391739030994
  0.762500000000  1.390404236485
  0.763125000000  1.388983233079
  0.763750000000  1.387476173542
  0.764375000000  1.385883215834
  0.765000000000  1.384204523093
  0.765625000000  1.382440263626
  0.766250000000  1.380590610895
  0.766875000000  1.378655743500
  0.767500000000  1.376635845172
  0.768125000000  1.374531104751
  0.768750000000  1.372341716177
  0.769375000000  1.370067878475
  0.770000000000  1.367709795737
  0.770625000000  1.365267677110
  0.771250000000  1.362741736778
  0.771875000000  1.360132193946
  0.772500000000  1.357439272828
  0.773125000000  1.354663202624
  0.773750000000  1.351804217508
  0.774375000000  1.348862556609
  0.775000000000  1.345838463995
  0.775625000000  1.342732188653
  0.776250000000  1.339543984472
  0.776875000000  1.336274110227
  0.777500000000  1.332922829557
  0.778125000000  1.329490410947
  0.778750000000  1.325977127711
  0.779375000000  1.322383257971
  0.780000000000  1.318709084635
  0.780625000000  1.314954895383
  0.781250000000  1.311120982639
  0.781875000000  1.307207643558
  0.782500000000  1.303215179999
  0.783125000000  1.299143898508
  0.783750000000  1.294994110295
  0.784375000000  1.290766131211
  0.785000000000  1.286460281730
  0.785625000000  1.282076886921
  0.786250000000  1.277616276432
  0.786875000000  1.273078784462
  0.787500000000  1.268464749739
  0.788125000000  1.263774515500
  0.788750000000  1.259008429464
  0.789375000000  1.254166843809
  0.790000000000  1.249250115147
  0.790625000000  1.244258604504
  0.791250000000  1.239192677288
  0.791875000000  1.234052703272
  0.792500000000  1.228839056562
  0.793125000000  1.223552115577
  0.793750000000  1.218192263020
  0.794375000000  1.212759885853
  0.795000000000  1.207255375272
  0.795625000000  1.201679126679
  0.796250000000  1.196031539655
  0.796875000000  1.190313017937
  0.797500000000  1.184523969385
  0.798125000000  1.178664805960
  0.798750000000  1.172735943692
  0.799375000000  1.166737802655
  0.800000000000  1.160670806940
  0.800625000000  1.154535384621
  0.801250000000  1.148331967734
  0.801875000000  1.142060992242
  0.802500000000  1.135722898011
  0.803125000000  1.129318128775
  0.803750000000  1.122847132112
  0.804375000000  1.116310359413
  0.805000000000  1.109708265849
  0.805625000000  1.103041310345
  0.806250000000  1.096309955547
  0.806875000000  1.089514667792
  0.807500000000  1.082655917078
  0.808125000000  1.075734177032
  0.808750000000  1.068749924882
  0.809375000000  1.061703641419
  0.810000000000  1.054595810972
  0.810625000000  1.047426921373
  0.811250000000  1.040197463926
  0.811875000000  1.032907933374
  0.812500000000  1.025558827867
  0.813125000000  1.018150648930
  0.813750000000  1.010683901430
  0.814375000000  1.003159093542
  0.815000000000  0.995576736716
  0.815625000000  0.987937345645
  0.816250000000  0.980241438233
  0.816875000000  0.972489535555
  0.817500000000  0.964682161829
  0.818125000000  0.956819844382
  0.818750000000  0.948903113610
  0.819375000000  0.940932502951
  0.820000000000  0.932908548844
  0.820625000000  0.924831790700
  0.821250000000  0.916702770862
  0.821875000000  0.908522034572
  0.822500000000  0.900290129938
  0.823125000000  0.892007607895
  0.823750000000  0.883675022171
  0.824375000000  0.875292929251
  0.825000000000  0.866861888341
  0.825625000000  0.858382461334
  0.826250000000  0.849855212772
  0.826875000000  0.841280709806
  0.827500000000  0.832659522169
  0.828125000000  0.823992222130
  0.828750000000  0.815279384462
  0.829375000000  0.806521586404
  0.830000000000  0.797719407624
  0.830625000000  0.788873430183
  0.831250000000  0.779984238496
  0.831875000000  0.771052419295
  0.832500000000  0.762078561592
  0.833125000000  0.753063256641
  0.833750000000  0.744007097900
  0.834375000000  0.734910680996
  0.835000000000  0.725774603680
  0.835625000000  0.716599465796
  0.836250000000  0.707385869242
  0.836875000000  0.698134417925
  0.837500000000  0.688845717730
  0.838125000000  0.679520376480
  0.838750000000  0.670159003894
  0.839375000000  0.660762211551
  0.840000000000  0.651330612850
  0.840625000000  0.641864822972
  0.841250000000  0.632365458841
  0.841875000000  0.622833139085
  0.842500000000  0.613268483993
  0.843125000000  0.603672115481
  0.843750000000  0.594044657053
  0.844375000000  0.584386733754
  0.845000000000  0.574698972138
  0.845625000000  0.564982000228
  0.846250000000  0.555236447471
  0.846875000000  0.545462944702
  0.847500000000  0.535662124105
  0.848125000000  0.525834619171
  0.848750000000  0.515981064658
  0.849375000000  0.506102096554
  0.850000000000  0.496198352033
  0.850625000000  0.486270469416
  0.851250000000  0.476319088135
  0.851875000000  0.466344848684
  0.852500000000  0.456348392589
  0.853125000000  0.446330362359
  0.853750000000  0.436291401452
  0.854375000000  0.426232154229
  0.855000000000  0.416153265921
  0.855625000000  0.406055382579
  0.856250000000  0.395939151042
  0.856875000000  0.385805218892
  0.857500000000  0.375654234414
  0.858125000000  0.365486846556
  0.858750000000  0.355303704890
  0.859375000000  0.345105459566
  0.860000000000  0.334892761280
  0.860625000000  0.324666261224
  0.861250000000  0.314426611051
  0.861875000000  0.304174462836
  0.862500000000  0.293910469028
  0.863125000000  0.283635282416
  0.863750000000  0.273349556086
  0.864375000000  0.263053943379
  0.865000000000  0.252749097855
  0.865625000000  0.242435673245
  0.866250000000  0.232114323417
  0.866875000000  0.221785702330
  0.867500000000  0.211450464000
  0.868125000000  0.201109262452
  0.868750000000  0.190762751684
  0.869375000000  0.180411585626
  0.870000000000  0.170056418097
  0.870625000000  0.159697902767
  0.871250000000  0.149336693115
  0.871875000000  0.138973442391
  0.872500000000  0.128608803572
  0.873125000000  0.118243429323
  0.873750000000  0.107877971958
  0.874375000000  0.097513083398
  0.875000000000  0.087149415132
  0.875625000000  0.076787618174
  0.876250000000  0.066428343027
  0.876875000000  0.056072239641
  0.877500000000  0.045719957370
