      radius    pressure
  0.500000000000 -1.736943520256
  0.500694444444 -1.736880013649
  0.501388888889 -1.736689591118
  0.502083333333 -1.736372405039
  0.502777777778 -1.735928616531
  0.503472222222 -1.735358395438
  0.504166666667 -1.734661920317
  0.504861111111 -1.733839378420
  0.505555555556 -1.732890965683
  0.506250000000 -1.731816886705
  0.506944444444 -1.730617354735
  0.507638888889 -1.729292591648
  0.508333333333 -1.727842827936
  0.509027777778 -1.726268302681
  0.509722222222 -1.724569263539
  0.510416666667 -1.722745966718
  0.511111111111 -1.720798676962
  0.511805555556 -1.718727667522
  0.512500000000 -1.716533220140
  0.513194444444 -1.714215625025
  0.513888888889 -1.711775180826
  0.514583333333 -1.709212194614
  0.515277777778 -1.706526981853
  0.515972222222 -1.703719866376
  0.516666666667 -1.700791180361
  0.517361111111 -1.697741264302
  0.518055555556 -1.694570466982
  0.518750000000 -1.691279145450
  0.519444444444 -1.687867664985
  0.520138888889 -1.684336399075
  0.520833333333 -1.680685729382
  0.521527777778 -1.676916045715
  0.522222222222 -1.673027745998
  0.522916666667 -1.669021236239
  0.523611111111 -1.664896930501
  0.524305555556 -1.660655250864
  0.525000000000 -1.656296627395
  0.525694444444 -1.651821498118
  0.526388888889 -1.647230308973
  0.527083333333 -1.642523513787
  0.527777777778 -1.637701574234
  0.528472222222 -1.632764959806
  0.529166666667 -1.627714147767
  0.529861111111 -1.622549623125
  0.530555555556 -1.617271878589
  0.531250000000 -1.611881414533
  0.531944444444 -1.606378738958
  0.532638888889 -1.600764367449
  0.533333333333 -1.595038823141
  0.534027777778 -1.589202636674
  0.534722222222 -1.583256346154
  0.535416666667 -1.577200497112
  0.536111111111 -1.571035642459
  0.536805555556 -1.564762342449
  0.537500000000 -1.558381164632
  0.538194444444 -1.551892683810
  0.538888888889 -1.545297481997
  0.539583333333 -1.538596148368
  0.540277777778 -1.531789279220
  0.540972222222 -1.524877477925
  0.541666666667 -1.517861354882
  0.542361111111 -1.510741527469
  0.543055555556 -1.503518620000
  0.543750000000 -1.496193263678
  0.544444444444 -1.488766096539
  0.545138888889 -1.481237763412
  0.545833333333 -1.473608915867
  0.546527777778 -1.465880212164
  0.547222222222 -1.458052317202
  0.547916666667 -1.450125902475
  0.548611111111 -1.442101646011
  0.549305555556 -1.433980232330
  0.550000000000 -1.425762352385
  0.550694444444 -1.417448703513
  0.551388888889 -1.409039989384
  0.552083333333 -1.400536919941
  0.552777777778 -1.391940211354
  0.553472222222 -1.383250585959
  0.554166666667 -1.374468772209
  0.554861111111 -1.365595504614
  0.555555555556 -1.356631523691
  0.556250000000 -1.347577575901
  0.556944444444 -1.338434413599
  0.557638888889 -1.329202794973
  0.558333333333 -1.319883483990
  0.559027777778 -1.310477250335
  0.559722222222 -1.300984869356
  0.560416666667 -1.291407122003
  0.561111111111 -1.281744794770
  0.561805555556 -1.271998679638
  0.562500000000 -1.262169574012
  0.563194444444 -1.252258280662
  0.563888888889 -1.242265607664
  0.564583333333 -1.232192368339
  0.565277777778 -1.222039381189
  0.565972222222 -1.211807469838
  0.566666666667 -1.201497462972
  0.567361111111 -1.191110194271
  0.568055555556 -1.180646502353
  0.568750000000 -1.170107230707
  0.569444444444 -1.159493227630
  0.570138888889 -1.148805346164
  0.570833333333 -1.138044444033
  0.571527777778 -1.127211383578
  0.572222222222 -1.116307031693
  0.572916666667 -1.105332259758
  0.573611111111 -1.094287943575
  0.574305555556 -1.083174963305
  0.575000000000 -1.071994203398
  0.575694444444 -1.060746552530
  0.576388888889 -1.049432903534
  0.577083333333 -1.038054153335
  0.577777777778 -1.026611202884
  0.578472222222 -1.015104957090
  0.579166666667 -1.003536324748
  0.579861111111 -0.991906218480
  0.580555555556 -0.980215554659
  0.581250000000 -0.968465253346
  0.581944444444 -0.956656238216
  0.582638888889 -0.944789436497
  0.583333333333 -0.932865778891
  0.584027777778 -0.920886199516
  0.584722222222 -0.908851635826
  0.585416666667 -0.896763028547
  0.586111111111 -0.884621321608
  0.586805555556 -0.872427462066
  0.587500000000 -0.860182400040
  0.588194444444 -0.847887088638
  0.588888888889 -0.835542483887
  0.589583333333 -0.823149544664
  0.590277777778 -0.810709232619
  0.590972222222 -0.798222512111
  0.591666666667 -0.785690350132
  0.592361111111 -0.773113716236
  0.593055555556 -0.760493582466
  0.593750000000 -0.747830923287
  0.594444444444 -0.735126715507
  0.595138888889 -0.722381938210
  0.595833333333 -0.709597572680
  0.596527777778 -0.696774602331
  0.597222222222 -0.683914012633
  0.597916666667 -0.671016791038
  0.598611111111 -0.658083926911
  0.599305555556 -0.645116411450
  0.600000000000 -0.632115237622
  0.600694444444 -0.619081400081
  0.601388888889 -0.606015895099
  0.602083333333 -0.592919720493
  0.602777777778 -0.579793875548
  0.603472222222 -0.566639360948
  0.604166666667 -0.553457178698
  0.604861111111 -0.540248332052
  0.605555555556 -0.527013825439
  0.606250000000 -0.513754664389
  0.606944444444 -0.500471855460
  0.607638888889 -0.487166406161
  0.608333333333 -0.473839324881
  0.609027777778 -0.460491620813
  0.609722222222 -0.447124303882
  0.610416666667 -0.433738384667
  0.611111111111 -0.420334874329
  0.611805555556 -0.406914784540
  0.612500000000 -0.393479127402
  0.613194444444 -0.380028915377
  0.613888888889 -0.366565161213
  0.614583333333 -0.353088877868
  0.615277777778 -0.339601078437
  0.615972222222 -0.326102776075
  0.616666666667 -0.312594983928
  0.617361111111 -0.299078715053
  0.618055555556 -0.285554982350
  0.618750000000 -0.272024798481
  0.619444444444 -0.258489175802
  0.620138888889 -0.244949126286
  0.620833333333 -0.231405661447
  0.621527777778 -0.217859792272
  0.622222222222 -0.204312529143
  0.622916666667 -0.190764881762
  0.623611111111 -0.177217859081
  0.624305555556 -0.163672469227
  0.625000000000 -0.150129719428
  0.625694444444 -0.136590615938
  0.626388888889 -0.123056163968
  0.627083333333 -0.109527367610
  0.627777777778 -0.096005229762
  0.628472222222 -0.082490752059
  0.629166666667 -0.068984934798
  0.629861111111 -0.055488776866
  0.630555555556 -0.042003275666
  0.631250000000 -0.028529427046
  0.631944444444 -0.015068225227
  0.632638888889 -0.001620662730
  0.633333333333  0.011812269698
  0.634027777778  0.025229583152
  0.634722222222  0.038630290643
  0.635416666667  0.052013407168
  0.636111111111  0.065377949784
  0.636805555556  0.078722937677
  0.637500000000  0.092047392233
  0.638194444444  0.105350337110
  0.638888888889  0.118630798308
  0.639583333333  0.131887804237
  0.640277777778  0.145120385794
  0.640972222222  0.158327576424
  0.641666666667  0.171508412196
  0.642361111111  0.184661931872
  0.643055555556  0.197787176973
  0.643750000000  0.210883191852
  0.644444444444  0.223949023758
  0.645138888889  0.236983722910
  0.645833333333  0.249986342563
  0.646527777778  0.262955939074
  0.647222222222  0.275891571975
  0.647916666667  0.288792304033
  0.648611111111  0.301657201325
  0.649305555556  0.314485333301
  0.650000000000  0.327275772851
  0.650694444444  0.340027596372
  0.651388888889  0.352739883833
  0.652083333333  0.365411718844
  0.652777777778  0.378042188718
  0.653472222222  0.390630384539
  0.654166666667  0.403175401225
  0.654861111111  0.415676337592
  0.655555555556  0.428132296424
  0.656250000000  0.440542384527
  0.656944444444  0.452905712805
  0.657638888889  0.465221396311
  0.658333333333  0.477488554319
  0.659027777778  0.489706310384
  0.659722222222  0.501873792402
  0.660416666667  0.513990132675
  0.661111111111  0.526054467972
  0.661805555556  0.538065939589
  0.662500000000  0.550023693412
  0.663194444444  0.561926879975
  0.663888888889  0.573774654522
  0.664583333333  0.585566177066
  0.665277777778  0.597300612450
  0.665972222222  0.608977130404
  0.666666666667  0.620594905604
  0.667361111111  0.632153117731
  0.668055555556  0.643650951528
  0.668750000000  0.655087596861
  0.669444444444  0.666462248768
  0.670138888889  0.677774107526
  0.670833333333  0.689022378697
  0.671527777778  0.700206273193
  0.672222222222  0.711325007325
  0.672916666667  0.722377802860
  0.673611111111  0.733363887076
  0.674305555556  0.744282492816
  0.675000000000  0.755132858541
  0.675694444444  0.765914228384
  0.676388888889  0.776625852201
  0.677083333333  0.787266985627
  0.677777777778  0.797836890122
  0.678472222222  0.808334833031
  0.679166666667  0.818760087625
  0.679861111111  0.829111933159
  0.680555555556  0.839389654918
  0.681250000000  0.849592544269
  0.681944444444  0.859719898709
  0.682638888889  0.869771021913
  0.683333333333  0.879745223781
  0.684027777778  0.889641820491
  0.684722222222  0.899460134539
  0.685416666667  0.909199494791
  0.686111111111  0.918859236526
  0.686805555556  0.928438701484
  0.687500000000  0.937937237907
  0.688194444444  0.947354200591
  0.688888888889  0.956688950922
  0.689583333333  0.965940856925
  0.690277777778  0.975109293304
  0.690972222222  0.984193641488
  0.691666666667  0.993193289669
  0.692361111111  1.002107632845
  0.693055555556  1.010936072865
  0.693750000000  1.019678018462
  0.694444444444  1.028332885299
  0.695138888889  1.036900096005
  0.695833333333  1.045379080217
  0.696527777778  1.053769274614
  0.697222222222  1.062070122960
  0.697916666667  1.070281076135
  0.698611111111  1.078401592179
  0.699305555556  1.086431136320
  0.700000000000  1.094369181018
  0.700694444444  1.102215205993
  0.701388888889  1.109968698264
  0.702083333333  1.117629152179
  0.702777777778  1.125196069452
  0.703472222222  1.132668959195
  0.704166666667  1.140047337947
  0.704861111111  1.147330729711
  0.705555555556  1.154518665979
  0.706250000000  1.161610685768
  0.706944444444  1.168606335647
  0.707638888889  1.175505169765
  0.708333333333  1.182306749884
  0.709027777778  1.189010645403
  0.709722222222  1.195616433388
  0.710416666667  1.202123698597
  0.711111111111  1.208532033510
  0.711805555556  1.214841038349
  0.712500000000  1.221050321110
  0.713194444444  1.227159497582
  0.713888888889  1.233168191373
  0.714583333333  1.239076033935
  0.715277777778  1.244882664586
  0.715972222222  1.250587730529
  0.716666666667  1.256190886877
  0.717361111111  1.261691796676
  0.718055555556  1.267090130920
  0.718750000000  1.272385568574
  0.719444444444  1.277577796592
  0.720138888889  1.282666509939
  0.720833333333  1.287651411603
  0.721527777778  1.292532212617
  0.722222222222  1.297308632074
  0.722916666667  1.301980397145
  0.723611111111  1.306547243091
  0.724305555556  1.311008913281
  0.725000000000  1.315365159206
  0.725694444444  1.319615740488
  0.726388888889  1.323760424903
  0.727083333333  1.327798988383
  0.727777777778  1.331731215033
  0.728472222222  1.335556897143
  0.729166666667  1.339275835196
  0.729861111111  1.342887837878
  0.730555555556  1.346392722090
  0.731250000000  1.349790312955
  0.731944444444  1.353080443824
  0.732638888889  1.356262956290
  0.733333333333  1.359337700185
  0.734027777778  1.362304533596
  0.734722222222  1.365163322864
  0.735416666667  1.367913942593
  0.736111111111  1.370556275652
  0.736805555556  1.373090213179
  0.737500000000  1.375515654584
  0.738194444444  1.377832507555
  0.738888888889  1.380040688053
  0.739583333333  1.382140120319
  0.740277777778  1.384130736874
  0.740972222222  1.386012478515
  0.741666666667  1.387785294321
  0.742361111111  1.389449141643
  0.743055555556  1.391003986112
  0.743750000000  1.392449801627
  0.744444444444  1.393786570361
  0.745138888889  1.395014282749
  0.745833333333  1.396132937488
  0.746527777778  1.397142541534
  0.747222222222  1.398043110090
  0.747916666667  1.398834666607
  0.748611111111  1.399517242771
  0.749305555556  1.400090878500
  0.750000000000  1.400555621934
  0.750694444444  1.400911529426
  0.751388888889  1.401158665534
  0.752083333333  1.401297103009
  0.752777777778  1.401326922787
  0.753472222222  1.401248213978
  0.754166666667  1.401061073850
  0.754861111111  1.400765607821
  0.755555555556  1.400361929445
  0.756250000000  1.399850160399
  0.756944444444  1.399230430466
  0.757638888889  1.398502877522
  0.758333333333  1.397667647523
  0.759027777778  1.396724894486
  0.759722222222  1.395674780471
  0.760416666667  1.394517475570
  0.761111111111  1.393253157881
  0.761805555556  1.391882013498
  0.762500000000  1.390404236485
  0.763194444444  1.388820028861
  0.763888888889  1.387129600576
  0.764583333333  1.385333169496
  0.765277777778  1.383430961376
  0.765972222222  1.381423209839
  0.766666666667  1.379310156359
  0.767361111111  1.377092050229
  0.768055555556  1.374769148544
  0.768750000000  1.372341716177
  0.769444444444  1.369810025749
  0.770138888889  1.367174357608
  0.770833333333  1.364434999800
  0.771527777778  1.361592248048
  0.772222222222  1.358646405717
  0.772916666667  1.355597783793
  0.773611111111  1.352446700851
  0.774305555556  1.349193483029
  0.775000000000  1.345838463995
  0.775694444444  1.342381984922
  0.776388888889  1.338824394452
  0.777083333333  1.335166048670
  0.777777777778  1.331407311070
  0.778472222222  1.327548552522
  0.779166666667  1.323590151242
  0.779861111111  1.319532492758
  0.780555555556  1.315375969874
  0.781250000000  1.311120982639
  0.781944444444  1.306767938311
  0.782638888889  1.302317251320
  0.783333333333  1.297769343237
  0.784027777778  1.293124642731
  0.784722222222  1.288383585536
  0.785416666667  1.283546614417
  0.786111111111  1.278614179124
  0.786805555556  1.273586736359
  0.787500000000  1.268464749739
  0.788194444444  1.263248689750
  0.788888888889  1.257939033713
  0.789583333333  1.252536265740
  0.790277777778  1.247040876696
  0.790972222222  1.241453364156
  0.791666666667  1.235774232362
  0.792361111111  1.230003992183
  0.793055555556  1.224143161072
  0.793750000000  1.218192263020
  0.794444444444  1.212151828514
  0.795138888889  1.206022394496
  0.795833333333  1.199804504311
  0.796527777778  1.193498707668
  0.797222222222  1.187105560592
  0.797916666667  1.180625625379
  0.798611111111  1.174059470547
  0.799305555556  1.167407670793
  0.800000000000  1.160670806940
  0.800694444444  1.153849465895
  0.801388888889  1.146944240597
  0.802083333333  1.139955729969
  0.802777777778  1.132884538871
  0.803472222222  1.125731278047
  0.804166666667  1.118496564075
  0.804861111111  1.111181019322
  0.805555555556  1.103785271885
  0.806250000000  1.096309955547
  0.806944444444  1.088755709721
  0.807638888889  1.081123179399
  0.808333333333  1.073413015102
  0.809027777778  1.065625872821
  0.809722222222  1.057762413971
  0.810416666667  1.049823305333
  0.811111111111  1.041809219001
  0.811805555556  1.033720832326
  0.812500000000  1.025558827867
  0.813194444444  1.017323893328
  0.813888888889  1.009016721508
  0.814583333333  1.000638010242
  0.815277777778  0.992188462349
  0.815972222222  0.983668785570
  0.816666666667  0.975079692516
  0.817361111111  0.966421900606
  0.818055555556  0.957696132014
  0.818750000000  0.948903113610
  0.819444444444  0.940043576899
  0.820138888889  0.931118257964
  0.820833333333  0.922127897409
  0.821527777778  0.913073240299
  0.822222222222  0.903955036097
  0.822916666667  0.894774038609
  0.823611111111  0.885531005923
  0.824305555556  0.876226700344
  0.825000000000  0.866861888341
  0.825694444444  0.857437340480
  0.826388888889  0.847953831363
  0.827083333333  0.838412139571
  0.827777777778  0.828813047599
  0.828472222222  0.819157341793
  0.829166666667  0.809445812289
  0.829861111111  0.799679252953
  0.830555555556  0.789858461311
  0.831250000000  0.779984238496
  0.831944444444  0.770057389175
  0.832638888889  0.760078721492
  0.833333333333  0.750049047001
  0.834027777778  0.739969180604
  0.834722222222  0.729839940483
  0.835416666667  0.719662148042
  0.836111111111  0.709436627835
  0.836805555556  0.699164207509
  0.837500000000  0.688845717730
  0.838194444444  0.678481992126
  0.838888888889  0.668073867216
  0.839583333333  0.657622182347
  0.840277777778  0.647127779628
  0.840972222222  0.636591503862
  0.841666666667  0.626014202484
  0.842361111111  0.615396725489
  0.843055555556  0.604739925371
  0.843750000000  0.594044657053
  0.844444444444  0.583311777820
  0.845138888889  0.572542147254
  0.845833333333  0.561736627168
  0.846527777778  0.550896081533
  0.847222222222  0.540021376419
  0.847916666667  0.529113379918
  0.848611111111  0.518172962086
  0.849305555556  0.507200994867
  0.850000000000  0.496198352033
  0.850694444444  0.485165909107
  0.851388888889  0.474104543305
  0.852083333333  0.463015133459
  0.852777777778  0.451898559955
  0.853472222222  0.440755704661
  0.854166666667  0.429587450860
  0.854861111111  0.418394683183
  0.855555555556  0.407178287538
  0.856250000000  0.395939151042
  0.856944444444  0.384678161955
  0.857638888889  0.373396209606
  0.858333333333  0.362094184329
  0.859027777778  0.350772977395
  0.859722222222  0.339433480938
  0.860416666667  0.328076587889
  0.861111111111  0.316703191910
  0.861805555556  0.305314187319
  0.862500000000  0.293910469028
  0.863194444444  0.282492932467
  0.863888888889  0.271062473522
  0.864583333333  0.259619988460
  0.865277777778  0.248166373866
  0.865972222222  0.236702526568
  0.866666666667  0.225229343573
  0.867361111111  0.213747721996
  0.868055555556  0.202258558991
  0.868750000000  0.190762751684
  0.869444444444  0.179261197103
  0.870138888889  0.167754792106
  0.870833333333  0.156244433321
  0.871527777778  0.144731017068
  0.872222222222  0.133215439296
  0.872916666667  0.121698595513
  0.873611111111  0.110181380719
  0.874305555556  0.098664689333
  0.875000000000  0.087149415132
  0.875694444444  0.075636451176
  0.876388888889  0.064126689744
  0.877083333333  0.052621022266
  0.877777777778  0.041120339252
  0.878472222222  0.029625530228
  0.879166666667  0.018137483664
  0.879861111111  0.006657086913
  0.880555555556 -0.004814773864
  0.881250000000 -0.016277213759
  0.881944444444 -0.027729349190
  0.882638888889 -0.039170297961
  0.883333333333 -0.050599179336
  0.884027777778 -0.062015114101
  0.884722222222 -0.073417224631
  0.885416666667 -0.084804634961
  0.886111111111 -0.096176470845
  0.886805555556 -0.107531859828
  0.887500000000 -0.118869931310
  0.888194444444 -0.130189816610
  0.888888888889 -0.141490649034
  0.889583333333 -0.152771563941
  0.890277777778 -0.164031698804
  0.890972222222 -0.175270193281
  0.891666666667 -0.186486189273
  0.892361111111 -0.197678830995
  0.893055555556 -0.208847265036
  0.893750000000 -0.219990640426
  0.894444444444 -0.231108108698
  0.895138888889 -0.242198823951
  0.895833333333 -0.253261942918
  0.896527777778 -0.264296625023
  0.897222222222 -0.275302032449
  0.897916666667 -0.286277330198
  0.898611111111 -0.297221686156
  0.899305555556 -0.308134271152
  0.900000000000 -0.319014259023
  0.900694444444 -0.329860826673
  0.901388888889 -0.340673154138
  0.902083333333 -0.351450424644
  0.902777777778 -0.362191824669
  0.903472222222 -0.372896544004
  0.904166666667 -0.383563775814
  0.904861111111 -0.394192716696
  0.905555555556 -0.404782566740
  0.906250000000 -0.415332529591
  0.906944444444 -0.425841812502
  0.907638888889 -0.436309626399
  0.908333333333 -0.446735185937
  0.909027777778 -0.457117709557
  0.909722222222 -0.467456419546
  0.910416666667 -0.477750542095
  0.911111111111 -0.487999307355
  0.911805555556 -0.498201949491
  0.912500000000 -0.508357706745
  0.913194444444 -0.518465821489
  0.913888888889 -0.528525540279
  0.914583333333 -0.538536113913
  0.915277777778 -0.548496797486
  0.915972222222 -0.558406850444
  0.916666666667 -0.568265536640
  0.917361111111 -0.578072124386
  0.918055555556 -0.587825886508
  0.918750000000 -0.597526100400
  0.919444444444 -0.607172048074
