      radius    pressure
  0.500000000000 -1.736943520256
  0.500862068966 -1.736845664089
  0.501724137931 -1.736552283668
  0.502586206897 -1.736063676546
  0.503448275862 -1.735380161016
  0.504310344828 -1.734502076068
  0.505172413793 -1.733429781347
  0.506034482759 -1.732163657108
  0.506896551724 -1.730704104163
  0.507758620690 -1.729051543831
  0.508620689655 -1.727206417885
  0.509482758621 -1.725169188500
  0.510344827586 -1.722940338185
  0.511206896552 -1.720520369733
  0.512068965517 -1.717909806152
  0.512931034483 -1.715109190602
  0.513793103448 -1.712119086326
  0.514655172414 -1.708940076584
  0.515517241379 -1.705572764576
  0.516379310345 -1.702017773373
  0.517241379310 -1.698275745837
  0.518103448276 -1.694347344543
  0.518965517241 -1.690233251700
  0.519827586207 -1.685934169066
  0.520689655172 -1.681450817863
  0.521551724138 -1.676783938690
  0.522413793103 -1.671934291433
  0.523275862069 -1.666902655176
  0.524137931034 -1.661689828100
  0.525000000000 -1.656296627395
  0.525862068966 -1.650723889157
  0.526724137931 -1.644972468287
  0.527586206897 -1.639043238394
  0.528448275862 -1.632937091681
  0.529310344828 -1.626654938849
  0.530172413793 -1.620197708981
  0.531034482759 -1.613566349433
  0.531896551724 -1.606761825722
  0.532758620690 -1.599785121410
  0.533620689655 -1.592637237987
  0.534482758621 -1.585319194755
  0.535344827586 -1.577832028702
  0.536206896552 -1.570176794382
  0.537068965517 -1.562354563792
  0.537931034483 -1.554366426241
  0.538793103448 -1.546213488225
  0.539655172414 -1.537896873293
  0.540517241379 -1.529417721916
  0.541379310345 -1.520777191355
  0.542241379310 -1.511976455520
  0.543103448276 -1.503016704835
  0.543965517241 -1.493899146096
  0.544827586207 -1.484625002333
  0.545689655172 -1.475195512660
  0.546551724138 -1.465611932137
  0.547413793103 -1.455875531616
  0.548275862069 -1.445987597597
  0.549137931034 -1.435949432074
  0.550000000000 -1.425762352385
  0.550862068966 -1.415427691057
  0.551724137931 -1.404946795650
  0.552586206897 -1.394321028599
  0.553448275862 -1.383551767058
  0.554310344828 -1.372640402735
  0.555172413793 -1.361588341732
  0.556034482759 -1.350397004381
  0.556896551724 -1.339067825080
  0.557758620690 -1.327602252122
  0.558620689655 -1.316001747531
  0.559482758621 -1.304267786889
  0.560344827586 -1.292401859166
  0.561206896552 -1.280405466547
  0.562068965517 -1.268280124255
  0.562931034483 -1.256027360379
  0.563793103448 -1.243648715697
  0.564655172414 -1.231145743491
  0.565517241379 -1.218520009376
  0.566379310345 -1.205773091111
  0.567241379310 -1.192906578423
  0.568103448276 -1.179922072815
  0.568965517241 -1.166821187390
  0.569827586207 -1.153605546658
  0.570689655172 -1.140276786351
  0.571551724138 -1.126836553233
  0.572413793103 -1.113286504910
  0.573275862069 -1.099628309642
  0.574137931034 -1.085863646144
  0.575000000000 -1.071994203398
  0.575862068966 -1.058021680459
  0.576724137931 -1.043947786254
  0.577586206897 -1.029774239390
  0.578448275862 -1.015502767953
  0.579310344828 -1.001135109313
  0.580172413793 -0.986673009922
  0.581034482759 -0.972118225112
  0.581896551724 -0.957472518897
  0.582758620690 -0.942737663766
  0.583620689655 -0.927915440483
  0.584482758621 -0.913007637883
  0.585344827586 -0.898016052664
  0.586206896552 -0.882942489183
  0.587068965517 -0.867788759249
  0.587931034483 -0.852556681917
  0.588793103448 -0.837248083275
  0.589655172414 -0.821864796241
  0.590517241379 -0.806408660351
  0.591379310345 -0.790881521545
  0.592241379310 -0.775285231963
  0.593103448276 -0.759621649728
  0.593965517241 -0.743892638736
  0.594827586207 -0.728100068444
  0.595689655172 -0.712245813654
  0.596551724138 -0.696331754302
  0.597413793103 -0.680359775242
  0.598275862069 -0.664331766032
  0.599137931034 -0.648249620719
  0.600000000000 -0.632115237622
  0.600862068966 -0.615930519118
  0.601724137931 -0.599697371424
  0.602586206897 -0.583417704380
  0.603448275862 -0.567093431235
  0.604310344828 -0.550726468424
  0.605172413793 -0.534318735357
  0.606034482759 -0.517872154196
  0.606896551724 -0.501388649640
  0.607758620690 -0.484870148703
  0.608620689655 -0.468318580501
  0.609482758621 -0.451735876028
  0.610344827586 -0.435123967941
  0.611206896552 -0.418484790341
  0.612068965517 -0.401820278550
  0.612931034483 -0.385132368897
  0.613793103448 -0.368422998496
  0.614655172414 -0.351694105031
  0.615517241379 -0.334947626530
  0.616379310345 -0.318185501154
  0.617241379310 -0.301409666974
  0.618103448276 -0.284622061751
  0.618965517241 -0.267824622721
  0.619827586207 -0.251019286377
  0.620689655172 -0.234207988245
  0.621551724138 -0.217392662675
  0.622413793103 -0.200575242613
  0.623275862069 -0.183757659394
  0.624137931034 -0.166941842515
  0.625000000000 -0.150129719428
  0.625862068966 -0.133323215313
  0.626724137931 -0.116524252872
  0.627586206897 -0.099734752105
  0.628448275862 -0.082956630100
  0.629310344828 -0.066191800815
  0.630172413793 -0.049442174866
  0.631034482759 -0.032709659309
  0.631896551724 -0.015996157432
  0.632758620690  0.000696431461
  0.633620689655  0.017366212264
  0.634482758621  0.034011294279
  0.635344827586  0.050629791424
  0.636206896552  0.067219822449
  0.637068965517  0.083779511145
  0.637931034483  0.100306986550
  0.638793103448  0.116800383158
  0.639655172414  0.133257841132
  0.640517241379  0.149677506505
  0.641379310345  0.166057531387
  0.642241379310  0.182396074175
  0.643103448276  0.198691299754
  0.643965517241  0.214941379701
  0.644827586207  0.231144492487
  0.645689655172  0.247298823683
  0.646551724138  0.263402566157
  0.647413793103  0.279453920278
  0.648275862069  0.295451094110
  0.649137931034  0.311392303616
  0.650000000000  0.327275772851
  0.650862068966  0.343099734161
  0.651724137931  0.358862428376
  0.652586206897  0.374562105006
  0.653448275862  0.390197022433
  0.654310344828  0.405765448104
  0.655172413793  0.421265658718
  0.656034482759  0.436695940422
  0.656896551724  0.452054588993
  0.657758620690  0.467339910030
  0.658620689655  0.482550219138
  0.659482758621  0.497683842112
  0.660344827586  0.512739115122
  0.661206896552  0.527714384894
  0.662068965517  0.542608008891
  0.662931034483  0.557418355495
  0.663793103448  0.572143804182
  0.664655172414  0.586782745700
  0.665517241379  0.601333582245
  0.666379310345  0.615794727635
  0.667241379310  0.630164607480
  0.668103448276  0.644441659360
  0.668965517241  0.658624332985
  0.669827586207  0.672711090373
  0.670689655172  0.686700406010
  0.671551724138  0.700590767016
  0.672413793103  0.714380673314
  0.673275862069  0.728068637784
  0.674137931034  0.741653186432
  0.675000000000  0.755132858541
  0.675862068966  0.768506206835
  0.676724137931  0.781771797629
  0.677586206897  0.794928210988
  0.678448275862  0.807974040876
  0.679310344828  0.820907895310
  0.680172413793  0.833728396504
  0.681034482759  0.846434181021
  0.681896551724  0.859023899917
  0.682758620690  0.871496218884
  0.683620689655  0.883849818394
  0.684482758621  0.896083393836
  0.685344827586  0.908195655658
  0.686206896552  0.920185329502
  0.687068965517  0.932051156339
  0.687931034483  0.943791892602
  0.688793103448  0.955406310317
  0.689655172414  0.966893197233
  0.690517241379  0.978251356950
  0.691379310345  0.989479609041
  0.692241379310  1.000576789179
  0.693103448276  1.011541749260
  0.693965517241  1.022373357517
  0.694827586207  1.033070498645
  0.695689655172  1.043632073909
  0.696551724138  1.054057001267
  0.697413793103  1.064344215472
  0.698275862069  1.074492668190
  0.699137931034  1.084501328103
  0.700000000000  1.094369181018
  0.700862068966  1.104095229969
  0.701724137931  1.113678495317
  0.702586206897  1.123118014854
  0.703448275862  1.132412843898
  0.704310344828  1.141562055388
  0.705172413793  1.150564739979
  0.706034482759  1.159420006135
  0.706896551724  1.168126980211
  0.707758620690  1.176684806550
  0.708620689655  1.185092647561
  0.709482758621  1.193349683804
  0.710344827586  1.201455114073
  0.711206896552  1.209408155470
  0.712068965517  1.217208043484
  0.712931034483  1.224854032068
  0.713793103448  1.232345393705
  0.714655172414  1.239681419483
  0.715517241379  1.246861419161
  0.716379310345  1.253884721233
  0.717241379310  1.260750672994
  0.718103448276  1.267458640600
  0.718965517241  1.274008009126
  0.719827586207  1.280398182624
  0.720689655172  1.286628584176
  0.721551724138  1.292698655949
  0.722413793103  1.298607859241
  0.723275862069  1.304355674532
  0.724137931034  1.309941601528
  0.725000000000  1.315365159206
  0.725862068966  1.320625885850
  0.726724137931  1.325723339096
  0.727586206897  1.330657095966
  0.728448275862  1.335426752900
  0.729310344828  1.340031925793
  0.730172413793  1.344472250017
  0.731034482759  1.348747380457
  0.731896551724  1.352856991530
  0.732758620690  1.356800777211
  0.733620689655  1.360578451051
  0.734482758621  1.364189746198
  0.735344827586  1.367634415411
  0.736206896552  1.370912231075
  0.737068965517  1.374022985211
  0.737931034483  1.376966489487
  0.738793103448  1.379742575223
  0.739655172414  1.382351093397
  0.740517241379  1.384791914647
  0.741379310345  1.387064929270
  0.742241379310  1.389170047223
  0.743103448276  1.391107198111
  0.743965517241  1.392876331191
  0.744827586207  1.394477415353
  0.745689655172  1.395910439116
  0.746551724138  1.397175410608
  0.747413793103  1.398272357555
  0.748275862069  1.399201327261
  0.749137931034  1.399962386589
  0.750000000000  1.400555621934
  0.750862068966  1.400981139204
  0.751724137931  1.401239063788
  0.752586206897  1.401329540530
  0.753448275862  1.401252733696
  0.754310344828  1.401008826938
  0.755172413793  1.400598023262
  0.756034482759  1.400020544986
  0.756896551724  1.399276633701
  0.757758620690  1.398366550231
  0.758620689655  1.397290574581
  0.759482758621  1.396049005897
  0.760344827586  1.394642162412
  0.761206896552  1.393070381396
  0.762068965517  1.391334019104
  0.762931034483  1.389433450716
  0.763793103448  1.387369070282
  0.764655172414  1.385141290662
  0.765517241379  1.382750543461
  0.766379310345  1.380197278967
  0.767241379310  1.377481966083
  0.768103448276  1.374605092259
  0.768965517241  1.371567163420
  0.769827586207  1.368368703893
  0.770689655172  1.365010256334
  0.771551724138  1.361492381647
  0.772413793103  1.357815658910
  0.773275862069  1.353980685287
  0.774137931034  1.349988075951
  0.775000000000  1.345838463995
  0.775862068966  1.341532500345
  0.776724137931  1.337070853669
  0.777586206897  1.332454210291
  0.778448275862  1.327683274090
  0.779310344828  1.322758766411
  0.780172413793  1.317681425963
  0.781034482759  1.312452008722
  0.781896551724  1.307071287827
  0.782758620690  1.301540053482
  0.783620689655  1.295859112844
  0.784482758621  1.290029289922
  0.785344827586  1.284051425462
  0.786206896552  1.277926376842
  0.787068965517  1.271655017954
  0.787931034483  1.265238239093
  0.788793103448  1.258676946838
  0.789655172414  1.251972063936
  0.790517241379  1.245124529180
  0.791379310345  1.238135297287
  0.792241379310  1.231005338777
  0.793103448276  1.223735639843
  0.793965517241  1.216327202228
  0.794827586207  1.208781043093
  0.795689655172  1.201098194888
  0.796551724138  1.193279705220
  0.797413793103  1.185326636716
  0.798275862069  1.177240066890
  0.799137931034  1.169021088007
  0.800000000000  1.160670806940
  0.800862068966  1.152190345030
  0.801724137931  1.143580837946
  0.802586206897  1.134843435542
  0.803448275862  1.125979301707
  0.804310344828  1.116989614221
  0.805172413793  1.107875564607
  0.806034482759  1.098638357980
  0.806896551724  1.089279212896
  0.807758620690  1.079799361197
  0.808620689655  1.070200047860
  0.809482758621  1.060482530839
  0.810344827586  1.050648080908
  0.811206896552  1.040697981502
  0.812068965517  1.030633528557
  0.812931034483  1.020456030351
  0.813793103448  1.010166807337
  0.814655172414  0.999767191981
  0.815517241379  0.989258528599
  0.816379310345  0.978642173185
  0.817241379310  0.967919493248
  0.818103448276  0.957091867640
  0.818965517241  0.946160686388
  0.819827586207  0.935127350518
  0.820689655172  0.923993271887
  0.821551724138  0.912759873008
  0.822413793103  0.901428586872
  0.823275862069  0.890000856776
  0.824137931034  0.878478136142
  0.825000000000  0.866861888341
  0.825862068966  0.855153586513
  0.826724137931  0.843354713386
  0.827586206897  0.831466761095
  0.828448275862  0.819491231001
  0.829310344828  0.807429633503
  0.830172413793  0.795283487861
  0.831034482759  0.783054322004
  0.831896551724  0.770743672347
  0.832758620690  0.758353083603
  0.833620689655  0.745884108596
  0.834482758621  0.733338308071
  0.835344827586  0.720717250508
  0.836206896552  0.708022511926
  0.837068965517  0.695255675697
  0.837931034483  0.682418332349
  0.838793103448  0.669512079381
  0.839655172414  0.656538521062
  0.840517241379  0.643499268242
  0.841379310345  0.630395938155
  0.842241379310  0.617230154226
  0.843103448276  0.604003545873
  0.843965517241  0.590717748313
  0.844827586207  0.577374402361
  0.845689655172  0.563975154239
  0.846551724138  0.550521655372
  0.847413793103  0.537015562193
  0.848275862069  0.523458535942
  0.849137931034  0.509852242469
  0.850000000000  0.496198352033
  0.850862068966  0.482498539101
  0.851724137931  0.468754482150
  0.852586206897  0.454967863462
  0.853448275862  0.441140368930
  0.854310344828  0.427273687847
  0.855172413793  0.413369512712
  0.856034482759  0.399429539027
  0.856896551724  0.385455465089
  0.857758620690  0.371448991795
  0.858620689655  0.357411822436
  0.859482758621  0.343345662494
  0.860344827586  0.329252219439
  0.861206896552  0.315133202529
  0.862068965517  0.300990322602
  0.862931034483  0.286825291878
  0.863793103448  0.272639823753
  0.864655172414  0.258435632596
  0.865517241379  0.244214433548
  0.866379310345  0.229977942315
  0.867241379310  0.215727874970
  0.868103448276  0.201465947745
  0.868965517241  0.187193876833
  0.869827586207  0.172913378181
  0.870689655172  0.158626167293
  0.871551724138  0.144333959020
  0.872413793103  0.130038467365
  0.873275862069  0.115741405278
  0.874137931034  0.101444484453
  0.875000000000  0.087149415132
  0.875862068966  0.072857905896
  0.876724137931  0.058571663473
  0.877586206897  0.044292392529
  0.878448275862  0.030021795476
  0.879310344828  0.015761572267
  0.880172413793  0.001513420198
  0.881034482759 -0.012720966289
  0.881896551724 -0.026939895806
  0.882758620690 -0.041141680215
  0.883620689655 -0.055324634829
  0.884482758621 -0.069487078604
  0.885344827586 -0.083627334338
  0.886206896552 -0.097743728865
  0.887068965517 -0.111834593254
  0.887931034483 -0.125898262997
  0.888793103448 -0.139933078207
  0.889655172414 -0.153937383812
  0.890517241379 -0.167909529741
  0.891379310345 -0.181847871126
  0.892241379310 -0.195750768481
  0.893103448276 -0.209616587903
  0.893965517241 -0.223443701253
  0.894827586207 -0.237230486350
  0.895689655172 -0.250975327156
  0.896551724138 -0.264676613963
  0.897413793103 -0.278332743581
  0.898275862069 -0.291942119520
  0.899137931034 -0.305503152179
  0.900000000000 -0.319014259023
  0.900862068966 -0.332473864769
  0.901724137931 -0.345880401569
  0.902586206897 -0.359232309187
  0.903448275862 -0.372528035178
  0.904310344828 -0.385766035071
  0.905172413793 -0.398944772541
  0.906034482759 -0.412062719588
  0.906896551724 -0.425118356712
  0.907758620690 -0.438110173083
  0.908620689655 -0.451036666723
  0.909482758621 -0.463896344666
  0.910344827586 -0.476687723137
  0.911206896552 -0.489409327720
  0.912068965517 -0.502059693521
  0.912931034483 -0.514637365341
  0.913793103448 -0.527140897837
  0.914655172414 -0.539568855691
  0.915517241379 -0.551919813769
  0.916379310345 -0.564192357282
  0.917241379310 -0.576385081951
  0.918103448276 -0.588496594162
  0.918965517241 -0.600525511127
  0.919827586207 -0.612470461034
  0.920689655172 -0.624330083211
  0.921551724138 -0.636103028271
  0.922413793103 -0.647787958270
  0.923275862069 -0.659383546854
  0.924137931034 -0.670888479409
  0.925000000000 -0.682301453209
  0.925862068966 -0.693621177563
  0.926724137931 -0.704846373958
  0.927586206897 -0.715975776201
  0.928448275862 -0.727008130564
  0.929310344828 -0.737942195922
  0.930172413793 -0.748776743891
  0.931034482759 -0.759510558963
  0.931896551724 -0.770142438647
  0.932758620690 -0.780671193595
  0.933620689655 -0.791095647740
  0.934482758621 -0.801414638423
  0.935344827586 -0.811627016522
  0.936206896552 -0.821731646580
  0.937068965517 -0.831727406928
  0.937931034483 -0.841613189809
  0.938793103448 -0.851387901504
  0.939655172414 -0.861050462443
  0.940517241379 -0.870599807332
  0.941379310345 -0.880034885266
  0.942241379310 -0.889354659841
  0.943103448276 -0.898558109272
  0.943965517241 -0.907644226499
  0.944827586207 -0.916612019300
  0.945689655172 -0.925460510397
  0.946551724138 -0.934188737560
  0.947413793103 -0.942795753714
  0.948275862069 -0.951280627039
  0.949137931034 -0.959642441067
  0.950000000000 -0.967880294787
  0.950862068966 -0.975993302734
  0.951724137931 -0.983980595088
  0.952586206897 -0.991841317764
  0.953448275862 -0.999574632504
  0.954310344828 -1.007179716964
  0.955172413793 -1.014655764800
  0.956034482759 -1.022001985756
  0.956896551724 -1.029217605742
  0.957758620690 -1.036301866918
  0.958620689655 -1.043254027772
  0.959482758621 -1.050073363195
  0.960344827586 -1.056759164557
  0.961206896552 -1.063310739781
  0.962068965517 -1.069727413409
  0.962931034483 -1.076008526677
  0.963793103448 -1.082153437577
  0.964655172414 -1.088161520922
  0.965517241379 -1.094032168410
  0.966379310345 -1.099764788684
  0.967241379310 -1.105358807390
  0.968103448276 -1.110813667234
  0.968965517241 -1.116128828035
  0.969827586207 -1.121303766778
  0.970689655172 -1.126337977666
  0.971551724138 -1.131230972163
  0.972413793103 -1.135982279046
  0.973275862069 -1.140591444446
  0.974137931034 -1.145058031887
  0.975000000000 -1.149381622332
  0.975862068966 -1.153561814215
  0.976724137931 -1.157598223481
  0.977586206897 -1.161490483613
  0.978448275862 -1.165238245672
  0.979310344828 -1.168841178318
  0.980172413793 -1.172298967841
  0.981034482759 -1.175611318188
  0.981896551724 -1.178777950981
  0.982758620690 -1.181798605541
  0.983620689655 -1.184673038903
  0.984482758621 -1.187401025839
  0.985344827586 -1.189982358866
  0.986206896552 -1.192416848261
  0.987068965517 -1.194704322070
  0.987931034483 -1.196844626118
  0.988793103448 -1.198837624012
  0.989655172414 -1.200683197148
  0.990517241379 -1.202381244708
  0.991379310345 -1.203931683666
  0.992241379310 -1.205334448777
  0.993103448276 -1.206589492582
  0.993965517241 -1.207696785391
  0.994827586207 -1.208656315282
  0.995689655172 -1.209468088087
  0.996551724138 -1.210132127378
  0.997413793103 -1.210648474451
  0.998275862069 -1.211017188312
  0.999137931034 -1.211238345655
  1.000000000000 -1.211312040840
