      radius    pressure
  0.500000000000  1.709443086973
  0.501000000000  1.709414130104
  0.502000000000  1.709327264880
  0.503000000000  1.709182500948
  0.504000000000  1.708979850104
  0.505000000000  1.708719326301
  0.506000000000  1.708400945647
  0.507000000000  1.708024726415
  0.508000000000  1.707590689040
  0.509000000000  1.707098856126
  0.510000000000  1.706549252451
  0.511000000000  1.705941904963
  0.512000000000  1.705276842791
  0.513000000000  1.704554097242
  0.514000000000  1.703773701805
  0.515000000000  1.702935692154
  0.516000000000  1.702040106151
  0.517000000000  1.701086983845
  0.518000000000  1.700076367477
  0.519000000000  1.699008301482
  0.520000000000  1.697882832486
  0.521000000000  1.696700009315
  0.522000000000  1.695459882989
  0.523000000000  1.694162506727
  0.524000000000  1.692807935950
  0.525000000000  1.691396228275
  0.526000000000  1.689927443525
  0.527000000000  1.688401643722
  0.528000000000  1.686818893091
  0.529000000000  1.685179258061
  0.530000000000  1.683482807262
  0.531000000000  1.681729611530
  0.532000000000  1.679919743902
  0.533000000000  1.678053279619
  0.534000000000  1.676130296124
  0.535000000000  1.674150873064
  0.536000000000  1.672115092287
  0.537000000000  1.670023037840
  0.538000000000  1.667874795974
  0.539000000000  1.665670455136
  0.540000000000  1.663410105973
  0.541000000000  1.661093841330
  0.542000000000  1.658721756245
  0.543000000000  1.656293947952
  0.544000000000  1.653810515877
  0.545000000000  1.651271561636
  0.546000000000  1.648677189035
  0.547000000000  1.646027504068
  0.548000000000  1.643322614911
  0.549000000000  1.640562631924
  0.550000000000  1.637747667647
  0.551000000000  1.634877836799
  0.552000000000  1.631953256271
  0.553000000000  1.628974045129
  0.554000000000  1.625940324607
  0.555000000000  1.622852218104
  0.556000000000  1.619709851186
  0.557000000000  1.616513351575
  0.558000000000  1.613262849152
  0.559000000000  1.609958475949
  0.560000000000  1.606600366149
  0.561000000000  1.603188656079
  0.562000000000  1.599723484210
  0.563000000000  1.596204991149
  0.564000000000  1.592633319637
  0.565000000000  1.589008614544
  0.566000000000  1.585331022865
  0.567000000000  1.581600677660
  0.568000000000  1.577817762104
  0.569000000000  1.573982413688
  0.570000000000  1.570094787858
  0.571000000000  1.566155042162
  0.572000000000  1.562163336248
  0.573000000000  1.558119831850
  0.574000000000  1.554024692791
  0.575000000000  1.549878084974
  0.576000000000  1.545680176378
  0.577000000000  1.541431137050
  0.578000000000  1.537131139100
  0.579000000000  1.532780356697
  0.580000000000  1.528378966061
  0.581000000000  1.523927145459
  0.582000000000  1.519425075196
  0.583000000000  1.514872937610
  0.584000000000  1.510270917068
  0.585000000000  1.505619199953
  0.586000000000  1.500917974666
  0.587000000000  1.496167431611
  0.588000000000  1.491367763194
  0.589000000000  1.486519163814
  0.590000000000  1.481621829854
  0.591000000000  1.476675959679
  0.592000000000  1.471681753621
  0.593000000000  1.466639413979
  0.594000000000  1.461549145007
  0.595000000000  1.456411152910
  0.596000000000  1.451225645831
  0.597000000000  1.445992833849
  0.598000000000  1.440712928966
  0.599000000000  1.435386145103
  0.600000000000  1.430012698090
  0.601000000000  1.424592805659
  0.602000000000  1.419126687432
  0.603000000000  1.413614564917
  0.604000000000  1.408056661498
  0.605000000000  1.402453202425
  0.606000000000  1.396804414809
  0.607000000000  1.391110527607
  0.608000000000  1.385371771619
  0.609000000000  1.379588379476
  0.610000000000  1.373760585632
  0.611000000000  1.367888626353
  0.612000000000  1.361972739711
  0.613000000000  1.356013165571
  0.614000000000  1.350010145584
  0.615000000000  1.343963923177
  0.616000000000  1.337874743542
  0.617000000000  1.331742853627
  0.618000000000  1.325568502127
  0.619000000000  1.319351939474
  0.620000000000  1.313093417824
  0.621000000000  1.306793191052
  0.622000000000  1.300451514738
  0.623000000000  1.294068646155
  0.624000000000  1.287644844266
  0.625000000000  1.281180369704
  0.626000000000  1.274675484771
  0.627000000000  1.268130453419
  0.628000000000  1.261545541243
  0.629000000000  1.254921015473
  0.630000000000  1.248257144957
  0.631000000000  1.241554200154
  0.632000000000  1.234812453123
  0.633000000000  1.228032177509
  0.634000000000  1.221213648537
  0.635000000000  1.214357142993
  0.636000000000  1.207462939220
  0.637000000000  1.200531317103
  0.638000000000  1.193562558056
  0.639000000000  1.186556945016
  0.640000000000  1.179514762424
  0.641000000000  1.172436296218
  0.642000000000  1.165321833821
  0.643000000000  1.158171664126
  0.644000000000  1.150986077488
  0.645000000000  1.143765365707
  0.646000000000  1.136509822022
  0.647000000000  1.129219741094
  0.648000000000  1.121895418994
  0.649000000000  1.114537153195
  0.650000000000  1.107145242551
  0.651000000000  1.099719987296
  0.652000000000  1.092261689020
  0.653000000000  1.084770650665
  0.654000000000  1.077247176507
  0.655000000000  1.069691572146
  0.656000000000  1.062104144491
  0.657000000000  1.054485201748
  0.658000000000  1.046835053410
  0.659000000000  1.039154010237
  0.660000000000  1.031442384251
  0.661000000000  1.023700488716
  0.662000000000  1.015928638128
  0.663000000000  1.008127148202
  0.664000000000  1.000296335859
  0.665000000000  0.992436519208
  0.666000000000  0.984548017539
  0.667000000000  0.976631151306
  0.668000000000  0.968686242111
  0.669000000000  0.960713612696
  0.670000000000  0.952713586926
  0.671000000000  0.944686489775
  0.672000000000  0.936632647311
  0.673000000000  0.928552386688
  0.674000000000  0.920446036122
  0.675000000000  0.912313924889
  0.676000000000  0.904156383300
  0.677000000000  0.895973742694
  0.678000000000  0.887766335421
  0.679000000000  0.879534494828
  0.680000000000  0.871278555245
  0.681000000000  0.862998851970
  0.682000000000  0.854695721258
  0.683000000000  0.846369500300
  0.684000000000  0.838020527216
  0.685000000000  0.829649141033
  0.686000000000  0.821255681679
  0.687000000000  0.812840489959
  0.688000000000  0.804403907549
  0.689000000000  0.795946276975
  0.690000000000  0.787467941602
  0.691000000000  0.778969245616
  0.692000000000  0.770450534014
  0.693000000000  0.761912152583
  0.694000000000  0.753354447891
  0.695000000000  0.744777767268
  0.696000000000  0.736182458793
  0.697000000000  0.727568871278
  0.698000000000  0.718937354252
  0.699000000000  0.710288257951
  0.700000000000  0.701621933295
  0.701000000000  0.692938731879
  0.702000000000  0.684239005955
  0.703000000000  0.675523108420
  0.704000000000  0.666791392794
  0.705000000000  0.658044213213
  0.706000000000  0.649281924407
  0.707000000000  0.640504881689
  0.708000000000  0.631713440938
  0.709000000000  0.622907958580
  0.710000000000  0.614088791582
  0.711000000000  0.605256297426
  0.712000000000  0.596410834100
  0.713000000000  0.587552760081
  0.714000000000  0.578682434317
  0.715000000000  0.569800216216
  0.716000000000  0.560906465626
  0.717000000000  0.552001542823
  0.718000000000  0.543085808492
  0.719000000000  0.534159623714
  0.720000000000  0.525223349950
  0.721000000000  0.516277349023
  0.722000000000  0.507321983104
  0.723000000000  0.498357614699
  0.724000000000  0.489384606626
  0.725000000000  0.480403322008
  0.726000000000  0.471414124250
  0.727000000000  0.462417377027
  0.728000000000  0.453413444267
  0.729000000000  0.444402690136
  0.730000000000  0.435385479021
  0.731000000000  0.426362175516
  0.732000000000  0.417333144403
  0.733000000000  0.408298750639
  0.734000000000  0.399259359339
  0.735000000000  0.390215335761
  0.736000000000  0.381167045288
  0.737000000000  0.372114853414
  0.738000000000  0.363059125728
  0.739000000000  0.354000227897
  0.740000000000  0.344938525651
  0.741000000000  0.335874384765
  0.742000000000  0.326808171048
  0.743000000000  0.317740250322
  0.744000000000  0.308670988407
  0.745000000000  0.299600751108
  0.746000000000  0.290529904195
  0.747000000000  0.281458813391
  0.748000000000  0.272387844353
  0.749000000000  0.263317362657
  0.750000000000  0.254247733783
  0.751000000000  0.245179323098
  0.752000000000  0.236112495840
  0.753000000000  0.227047617104
  0.754000000000  0.217985051822
  0.755000000000  0.208925164751
  0.756000000000  0.199868320457
  0.757000000000  0.190814883296
  0.758000000000  0.181765217399
  0.759000000000  0.172719686661
  0.760000000000  0.163678654717
  0.761000000000  0.154642484932
  0.762000000000  0.145611540385
  0.763000000000  0.136586183848
  0.764000000000  0.127566777777
  0.765000000000  0.118553684291
  0.766000000000  0.109547265160
  0.767000000000  0.100547881786
  0.768000000000  0.091555895189
  0.769000000000  0.082571665991
  0.770000000000  0.073595554400
  0.771000000000  0.064627920195
  0.772000000000  0.055669122708
  0.773000000000  0.046719520812
  0.774000000000  0.037779472904
  0.775000000000  0.028849336886
  0.776000000000  0.019929470154
  0.777000000000  0.011020229580
  0.778000000000  0.002121971498
  0.779000000000 -0.006764948313
  0.780000000000 -0.015640174645
  0.781000000000 -0.024503352875
  0.782000000000 -0.033354128981
  0.783000000000 -0.042192149556
  0.784000000000 -0.051017061827
  0.785000000000 -0.059828513668
  0.786000000000 -0.068626153613
  0.787000000000 -0.077409630878
  0.788000000000 -0.086178595368
  0.789000000000 -0.094932697700
  0.790000000000 -0.103671589214
  0.791000000000 -0.112394921986
  0.792000000000 -0.121102348849
  0.793000000000 -0.129793523404
  0.794000000000 -0.138468100038
  0.795000000000 -0.147125733934
  0.796000000000 -0.155766081093
  0.797000000000 -0.164388798342
  0.798000000000 -0.172993543355
  0.799000000000 -0.181579974665
  0.800000000000 -0.190147751676
  0.801000000000 -0.198696534684
  0.802000000000 -0.207225984888
  0.803000000000 -0.215735764405
  0.804000000000 -0.224225536286
  0.805000000000 -0.232694964528
  0.806000000000 -0.241143714092
  0.807000000000 -0.249571450916
  0.808000000000 -0.257977841928
  0.809000000000 -0.266362555064
  0.810000000000 -0.274725259279
  0.811000000000 -0.283065624563
  0.812000000000 -0.291383321957
  0.813000000000 -0.299678023563
  0.814000000000 -0.307949402562
  0.815000000000 -0.316197133227
  0.816000000000 -0.324420890937
  0.817000000000 -0.332620352191
  0.818000000000 -0.340795194621
  0.819000000000 -0.348945097011
  0.820000000000 -0.357069739303
  0.821000000000 -0.365168802617
  0.822000000000 -0.373241969263
  0.823000000000 -0.381288922754
  0.824000000000 -0.389309347822
  0.825000000000 -0.397302930428
  0.826000000000 -0.405269357779
  0.827000000000 -0.413208318340
  0.828000000000 -0.421119501848
  0.829000000000 -0.429002599324
  0.830000000000 -0.436857303090
  0.831000000000 -0.444683306777
  0.832000000000 -0.452480305343
  0.833000000000 -0.460247995085
  0.834000000000 -0.467986073650
  0.835000000000 -0.475694240051
  0.836000000000 -0.483372194676
  0.837000000000 -0.491019639306
  0.838000000000 -0.498636277126
  0.839000000000 -0.506221812736
  0.840000000000 -0.513775952165
  0.841000000000 -0.521298402883
  0.842000000000 -0.528788873816
  0.843000000000 -0.536247075358
  0.844000000000 -0.543672719378
  0.845000000000 -0.551065519242
  0.846000000000 -0.558425189817
  0.847000000000 -0.565751447487
  0.848000000000 -0.573044010165
  0.849000000000 -0.580302597307
  0.850000000000 -0.587526929917
  0.851000000000 -0.594716730570
  0.852000000000 -0.601871723413
  0.853000000000 -0.608991634184
  0.854000000000 -0.616076190222
  0.855000000000 -0.623125120476
  0.856000000000 -0.630138155522
  0.857000000000 -0.637115027569
  0.858000000000 -0.644055470475
  0.859000000000 -0.650959219755
  0.860000000000 -0.657826012593
  0.861000000000 -0.664655587856
  0.862000000000 -0.671447686102
  0.863000000000 -0.678202049593
  0.864000000000 -0.684918422306
  0.865000000000 -0.691596549940
  0.866000000000 -0.698236179934
  0.867000000000 -0.704837061472
  0.868000000000 -0.711398945496
  0.869000000000 -0.717921584717
  0.870000000000 -0.724404733625
  0.871000000000 -0.730848148496
  0.872000000000 -0.737251587411
  0.873000000000 -0.743614810258
  0.874000000000 -0.749937578745
  0.875000000000 -0.756219656411
  0.876000000000 -0.762460808636
  0.877000000000 -0.768660802651
  0.878000000000 -0.774819407545
  0.879000000000 -0.780936394278
  0.880000000000 -0.787011535692
  0.881000000000 -0.793044606516
  0.882000000000 -0.799035383379
  0.883000000000 -0.804983644818
  0.884000000000 -0.810889171288
  0.885000000000 -0.816751745171
  0.886000000000 -0.822571150787
  0.887000000000 -0.828347174398
  0.888000000000 -0.834079604224
  0.889000000000 -0.839768230446
  0.890000000000 -0.845412845218
  0.891000000000 -0.851013242674
  0.892000000000 -0.856569218940
  0.893000000000 -0.862080572138
  0.894000000000 -0.867547102397
  0.895000000000 -0.872968611862
  0.896000000000 -0.878344904699
  0.897000000000 -0.883675787108
  0.898000000000 -0.888961067328
  0.899000000000 -0.894200555645
  0.900000000000 -0.899394064400
  0.901000000000 -0.904541407998
  0.902000000000 -0.909642402916
  0.903000000000 -0.914696867708
  0.904000000000 -0.919704623015
  0.905000000000 -0.924665491572
  0.906000000000 -0.929579298214
  0.907000000000 -0.934445869886
  0.908000000000 -0.939265035646
  0.909000000000 -0.944036626676
  0.910000000000 -0.948760476288
  0.911000000000 -0.953436419928
  0.912000000000 -0.958064295188
  0.913000000000 -0.962643941806
  0.914000000000 -0.967175201681
  0.915000000000 -0.971657918870
  0.916000000000 -0.976091939603
  0.917000000000 -0.980477112282
  0.918000000000 -0.984813287492
  0.919000000000 -0.989100318008
  0.920000000000 -0.993338058794
  0.921000000000 -0.997526367017
  0.922000000000 -1.001665102047
  0.923000000000 -1.005754125467
  0.924000000000 -1.009793301075
  0.925000000000 -1.013782494890
  0.926000000000 -1.017721575162
  0.927000000000 -1.021610412369
  0.928000000000 -1.025448879229
  0.929000000000 -1.029236850703
  0.930000000000 -1.032974204000
  0.931000000000 -1.036660818580
  0.932000000000 -1.040296576161
  0.933000000000 -1.043881360724
  0.934000000000 -1.047415058515
  0.935000000000 -1.050897558052
  0.936000000000 -1.054328750128
  0.937000000000 -1.057708527814
  0.938000000000 -1.061036786469
  0.939000000000 -1.064313423734
  0.940000000000 -1.067538339547
  0.941000000000 -1.070711436137
  0.942000000000 -1.073832618034
  0.943000000000 -1.076901792072
  0.944000000000 -1.079918867389
  0.945000000000 -1.082883755435
  0.946000000000 -1.085796369970
  0.947000000000 -1.088656627072
  0.948000000000 -1.091464445139
  0.949000000000 -1.094219744888
  0.950000000000 -1.096922449366
  0.951000000000 -1.099572483943
  0.952000000000 -1.102169776322
  0.953000000000 -1.104714256538
  0.954000000000 -1.107205856962
  0.955000000000 -1.109644512304
  0.956000000000 -1.112030159611
  0.957000000000 -1.114362738275
  0.958000000000 -1.116642190031
  0.959000000000 -1.118868458961
  0.960000000000 -1.121041491492
  0.961000000000 -1.123161236404
  0.962000000000 -1.125227644828
  0.963000000000 -1.127240670244
  0.964000000000 -1.129200268491
  0.965000000000 -1.131106397760
  0.966000000000 -1.132959018600
  0.967000000000 -1.134758093916
  0.968000000000 -1.136503588974
  0.969000000000 -1.138195471397
  0.970000000000 -1.139833711169
  0.971000000000 -1.141418280635
  0.972000000000 -1.142949154501
  0.973000000000 -1.144426309834
  0.974000000000 -1.145849726063
  0.975000000000 -1.147219384982
  0.976000000000 -1.148535270743
  0.977000000000 -1.149797369862
  0.978000000000 -1.151005671219
  0.979000000000 -1.152160166052
  0.980000000000 -1.153260847965
  0.981000000000 -1.154307712919
  0.982000000000 -1.155300759238
  0.983000000000 -1.156239987605
  0.984000000000 -1.157125401063
  0.985000000000 -1.157957005013
  0.986000000000 -1.158734807211
  0.987000000000 -1.159458817774
  0.988000000000 -1.160129049168
  0.989000000000 -1.160745516219
  0.990000000000 -1.161308236100
  0.991000000000 -1.161817228337
  0.992000000000 -1.162272514807
  0.993000000000 -1.162674119731
  0.994000000000 -1.163022069678
  0.995000000000 -1.163316393560
  0.996000000000 -1.163557122629
  0.997000000000 -1.163744290481
  0.998000000000 -1.163877933044
  0.999000000000 -1.163958088584
  1.000000000000 -1.163984797699
