      radius    pressure
  0.500000000000  1.709443086973
  0.500625000000  1.709431775515
  0.501250000000  1.709397842366
  0.501875000000  1.709341289587
  0.502500000000  1.709262119565
  0.503125000000  1.709160335017
  0.503750000000  1.709035938987
  0.504375000000  1.708888934847
  0.505000000000  1.708719326301
  0.505625000000  1.708527117379
  0.506250000000  1.708312312445
  0.506875000000  1.708074916188
  0.507500000000  1.707814933633
  0.508125000000  1.707532370132
  0.508750000000  1.707227231369
  0.509375000000  1.706899523359
  0.510000000000  1.706549252451
  0.510625000000  1.706176425323
  0.511250000000  1.705781048986
  0.511875000000  1.705363130786
  0.512500000000  1.704922678397
  0.513125000000  1.704459699830
  0.513750000000  1.703974203427
  0.514375000000  1.703466197866
  0.515000000000  1.702935692154
  0.515625000000  1.702382695636
  0.516250000000  1.701807217990
  0.516875000000  1.701209269227
  0.517500000000  1.700588859693
  0.518125000000  1.699946000069
  0.518750000000  1.699280701371
  0.519375000000  1.698592974948
  0.520000000000  1.697882832486
  0.520625000000  1.697150286006
  0.521250000000  1.696395347863
  0.521875000000  1.695618030748
  0.522500000000  1.694818347688
  0.523125000000  1.693996312045
  0.523750000000  1.693151937517
  0.524375000000  1.692285238137
  0.525000000000  1.691396228275
  0.525625000000  1.690484922637
  0.526250000000  1.689551336265
  0.526875000000  1.688595484534
  0.527500000000  1.687617383160
  0.528125000000  1.686617048192
  0.528750000000  1.685594496015
  0.529375000000  1.684549743353
  0.530000000000  1.683482807262
  0.530625000000  1.682393705139
  0.531250000000  1.681282454712
  0.531875000000  1.680149074050
  0.532500000000  1.678993581554
  0.533125000000  1.677815995964
  0.533750000000  1.676616336356
  0.534375000000  1.675394622140
  0.535000000000  1.674150873064
  0.535625000000  1.672885109211
  0.536250000000  1.671597351000
  0.536875000000  1.670287619185
  0.537500000000  1.668955934858
  0.538125000000  1.667602319443
  0.538750000000  1.666226794704
  0.539375000000  1.664829382737
  0.540000000000  1.663410105973
  0.540625000000  1.661968987182
  0.541250000000  1.660506049465
  0.541875000000  1.659021316259
  0.542500000000  1.657514811337
  0.543125000000  1.655986558805
  0.543750000000  1.654436583105
  0.544375000000  1.652864909012
  0.545000000000  1.651271561636
  0.545625000000  1.649656566419
  0.546250000000  1.648019949140
  0.546875000000  1.646361735907
  0.547500000000  1.644681953167
  0.548125000000  1.642980627694
  0.548750000000  1.641257786600
  0.549375000000  1.639513457326
  0.550000000000  1.637747667647
  0.550625000000  1.635960445671
  0.551250000000  1.634151819836
  0.551875000000  1.632321818912
  0.552500000000  1.630470472001
  0.553125000000  1.628597808536
  0.553750000000  1.626703858280
  0.554375000000  1.624788651328
  0.555000000000  1.622852218104
  0.555625000000  1.620894589363
  0.556250000000  1.618915796187
  0.556875000000  1.616915869990
  0.557500000000  1.614894842513
  0.558125000000  1.612852745828
  0.558750000000  1.610789612334
  0.559375000000  1.608705474756
  0.560000000000  1.606600366149
  0.560625000000  1.604474319894
  0.561250000000  1.602327369700
  0.561875000000  1.600159549601
  0.562500000000  1.597970893957
  0.563125000000  1.595761437456
  0.563750000000  1.593531215108
  0.564375000000  1.591280262251
  0.565000000000  1.589008614544
  0.565625000000  1.586716307972
  0.566250000000  1.584403378844
  0.566875000000  1.582069847758
  0.567500000000  1.579715783623
  0.568125000000  1.577341207807
  0.568750000000  1.574946157908
  0.569375000000  1.572530671845
  0.570000000000  1.570094787858
  0.570625000000  1.567638544507
  0.571250000000  1.565161980672
  0.571875000000  1.562665135553
  0.572500000000  1.560148048669
  0.573125000000  1.557610759855
  0.573750000000  1.555053309268
  0.574375000000  1.552475737378
  0.575000000000  1.549878084974
  0.575625000000  1.547260393163
  0.576250000000  1.544622703364
  0.576875000000  1.541965057315
  0.577500000000  1.539287497065
  0.578125000000  1.536590064980
  0.578750000000  1.533872803738
  0.579375000000  1.531135756330
  0.580000000000  1.528378966061
  0.580625000000  1.525602476546
  0.581250000000  1.522806331711
  0.581875000000  1.519990575794
  0.582500000000  1.517155253343
  0.583125000000  1.514300409214
  0.583750000000  1.511426088572
  0.584375000000  1.508532336892
  0.585000000000  1.505619199953
  0.585625000000  1.502686723845
  0.586250000000  1.499734954961
  0.586875000000  1.496763940001
  0.587500000000  1.493773725969
  0.588125000000  1.490764360175
  0.588750000000  1.487735890231
  0.589375000000  1.484688364051
  0.590000000000  1.481621829854
  0.590625000000  1.478536336159
  0.591250000000  1.475431931784
  0.591875000000  1.472308665851
  0.592500000000  1.469166587778
  0.593125000000  1.466005747283
  0.593750000000  1.462826194381
  0.594375000000  1.459627979387
  0.595000000000  1.456411152910
  0.595625000000  1.453175765855
  0.596250000000  1.449921869422
  0.596875000000  1.446649515106
  0.597500000000  1.443358754695
  0.598125000000  1.440049640269
  0.598750000000  1.436722224202
  0.599375000000  1.433376559158
  0.600000000000  1.430012698090
  0.600625000000  1.426630694243
  0.601250000000  1.423230601150
  0.601875000000  1.419812472630
  0.602500000000  1.416376362792
  0.603125000000  1.412922326031
  0.603750000000  1.409450417026
  0.604375000000  1.405960690741
  0.605000000000  1.402453202425
  0.605625000000  1.398928007611
  0.606250000000  1.395385162110
  0.606875000000  1.391824722020
  0.607500000000  1.388246743715
  0.608125000000  1.384651283850
  0.608750000000  1.381038399361
  0.609375000000  1.377408147458
  0.610000000000  1.373760585632
  0.610625000000  1.370095771647
  0.611250000000  1.366413763544
  0.611875000000  1.362714619637
  0.612500000000  1.358998398517
  0.613125000000  1.355265159042
  0.613750000000  1.351514960347
  0.614375000000  1.347747861834
  0.615000000000  1.343963923177
  0.615625000000  1.340163204318
  0.616250000000  1.336345765467
  0.616875000000  1.332511667101
  0.617500000000  1.328660969964
  0.618125000000  1.324793735063
  0.618750000000  1.320910023672
  0.619375000000  1.317009897327
  0.620000000000  1.313093417824
  0.620625000000  1.309160647225
  0.621250000000  1.305211647847
  0.621875000000  1.301246482271
  0.622500000000  1.297265213334
  0.623125000000  1.293267904130
  0.623750000000  1.289254618011
  0.624375000000  1.285225418582
  0.625000000000  1.281180369704
  0.625625000000  1.277119535493
  0.626250000000  1.273042980313
  0.626875000000  1.268950768783
  0.627500000000  1.264842965770
  0.628125000000  1.260719636392
  0.628750000000  1.256580846015
  0.629375000000  1.252426660250
  0.630000000000  1.248257144957
  0.630625000000  1.244072366238
  0.631250000000  1.239872390443
  0.631875000000  1.235657284160
  0.632500000000  1.231427114224
  0.633125000000  1.227181947707
  0.633750000000  1.222921851922
  0.634375000000  1.218646894421
  0.635000000000  1.214357142993
  0.635625000000  1.210052665663
  0.636250000000  1.205733530694
  0.636875000000  1.201399806579
  0.637500000000  1.197051562048
  0.638125000000  1.192688866060
  0.638750000000  1.188311787808
  0.639375000000  1.183920396713
  0.640000000000  1.179514762424
  0.640625000000  1.175094954819
  0.641250000000  1.170661044002
  0.641875000000  1.166213100302
  0.642500000000  1.161751194273
  0.643125000000  1.157275396690
  0.643750000000  1.152785778552
  0.644375000000  1.148282411079
  0.645000000000  1.143765365707
  0.645625000000  1.139234714095
  0.646250000000  1.134690528115
  0.646875000000  1.130132879859
  0.647500000000  1.125561841631
  0.648125000000  1.120977485950
  0.648750000000  1.116379885546
  0.649375000000  1.111769113363
  0.650000000000  1.107145242551
  0.650625000000  1.102508346474
  0.651250000000  1.097858498700
  0.651875000000  1.093195773003
  0.652500000000  1.088520243367
  0.653125000000  1.083831983974
  0.653750000000  1.079131069213
  0.654375000000  1.074417573674
  0.655000000000  1.069691572146
  0.655625000000  1.064953139618
  0.656250000000  1.060202351277
  0.656875000000  1.055439282506
  0.657500000000  1.050664008885
  0.658125000000  1.045876606188
  0.658750000000  1.041077150379
  0.659375000000  1.036265717617
  0.660000000000  1.031442384251
  0.660625000000  1.026607226818
  0.661250000000  1.021760322043
  0.661875000000  1.016901746839
  0.662500000000  1.012031578303
  0.663125000000  1.007149893717
  0.663750000000  1.002256770545
  0.664375000000  0.997352286433
  0.665000000000  0.992436519208
  0.665625000000  0.987509546875
  0.666250000000  0.982571447616
  0.666875000000  0.977622299791
  0.667500000000  0.972662181933
  0.668125000000  0.967691172753
  0.668750000000  0.962709351128
  0.669375000000  0.957716796112
  0.670000000000  0.952713586926
  0.670625000000  0.947699802960
  0.671250000000  0.942675523771
  0.671875000000  0.937640829082
  0.672500000000  0.932595798781
  0.673125000000  0.927540512918
  0.673750000000  0.922475051706
  0.674375000000  0.917399495519
  0.675000000000  0.912313924889
  0.675625000000  0.907218420506
  0.676250000000  0.902113063216
  0.676875000000  0.896997934022
  0.677500000000  0.891873114080
  0.678125000000  0.886738684697
  0.678750000000  0.881594727333
  0.679375000000  0.876441323596
  0.680000000000  0.871278555245
  0.680625000000  0.866106504182
  0.681250000000  0.860925252459
  0.681875000000  0.855734882269
  0.682500000000  0.850535475949
  0.683125000000  0.845327115978
  0.683750000000  0.840109884973
  0.684375000000  0.834883865694
  0.685000000000  0.829649141033
  0.685625000000  0.824405794022
  0.686250000000  0.819153907826
  0.686875000000  0.813893565743
  0.687500000000  0.808624851202
  0.688125000000  0.803347847765
  0.688750000000  0.798062639120
  0.689375000000  0.792769309085
  0.690000000000  0.787467941602
  0.690625000000  0.782158620738
  0.691250000000  0.776841430686
  0.691875000000  0.771516455757
  0.692500000000  0.766183780385
  0.693125000000  0.760843489122
  0.693750000000  0.755495666638
  0.694375000000  0.750140397720
  0.695000000000  0.744777767268
  0.695625000000  0.739407860297
  0.696250000000  0.734030761933
  0.696875000000  0.728646557412
  0.697500000000  0.723255332081
  0.698125000000  0.717857171391
  0.698750000000  0.712452160904
  0.699375000000  0.707040386283
  0.700000000000  0.701621933295
  0.700625000000  0.696196887809
  0.701250000000  0.690765335796
  0.701875000000  0.685327363324
  0.702500000000  0.679883056558
  0.703125000000  0.674432501762
  0.703750000000  0.668975785290
  0.704375000000  0.663512993593
  0.705000000000  0.658044213213
  0.705625000000  0.652569530780
  0.706250000000  0.647089033015
  0.706875000000  0.641602806725
  0.707500000000  0.636110938804
  0.708125000000  0.630613516228
  0.708750000000  0.625110626058
  0.709375000000  0.619602355435
  0.710000000000  0.614088791582
  0.710625000000  0.608570021798
  0.711250000000  0.603046133460
  0.711875000000  0.597517214020
  0.712500000000  0.591983351004
  0.713125000000  0.586444632011
  0.713750000000  0.580901144712
  0.714375000000  0.575352976844
  0.715000000000  0.569800216216
  0.715625000000  0.564242950701
  0.716250000000  0.558681268238
  0.716875000000  0.553115256829
  0.717500000000  0.547545004540
  0.718125000000  0.541970599494
  0.718750000000  0.536392129877
  0.719375000000  0.530809683929
  0.720000000000  0.525223349950
  0.720625000000  0.519633216290
  0.721250000000  0.514039371356
  0.721875000000  0.508441903605
  0.722500000000  0.502840901543
  0.723125000000  0.497236453728
  0.723750000000  0.491628648760
  0.724375000000  0.486017575290
  0.725000000000  0.480403322008
  0.725625000000  0.474785977651
  0.726250000000  0.469165630995
  0.726875000000  0.463542370855
  0.727500000000  0.457916286084
  0.728125000000  0.452287465574
  0.728750000000  0.446655998249
  0.729375000000  0.441021973068
  0.730000000000  0.435385479021
  0.730625000000  0.429746605131
  0.731250000000  0.424105440448
  0.731875000000  0.418462074048
  0.732500000000  0.412816595036
  0.733125000000  0.407169092540
  0.733750000000  0.401519655711
  0.734375000000  0.395868373720
  0.735000000000  0.390215335761
  0.735625000000  0.384560631044
  0.736250000000  0.378904348797
  0.736875000000  0.373246578262
  0.737500000000  0.367587408695
  0.738125000000  0.361926929367
  0.738750000000  0.356265229556
  0.739375000000  0.350602398552
  0.740000000000  0.344938525651
  0.740625000000  0.339273700156
  0.741250000000  0.333608011374
  0.741875000000  0.327941548617
  0.742500000000  0.322274401197
  0.743125000000  0.316606658427
  0.743750000000  0.310938409617
  0.744375000000  0.305269744076
  0.745000000000  0.299600751108
  0.745625000000  0.293931520010
  0.746250000000  0.288262140074
  0.746875000000  0.282592700580
  0.747500000000  0.276923290800
  0.748125000000  0.271253999993
  0.748750000000  0.265584917403
  0.749375000000  0.259916132262
  0.750000000000  0.254247733783
  0.750625000000  0.248579811161
  0.751250000000  0.242912453573
  0.751875000000  0.237245750173
  0.752500000000  0.231579790094
  0.753125000000  0.225914662444
  0.753750000000  0.220250456305
  0.754375000000  0.214587260732
  0.755000000000  0.208925164751
  0.755625000000  0.203264257359
  0.756250000000  0.197604627520
  0.756875000000  0.191946364165
  0.757500000000  0.186289556190
  0.758125000000  0.180634292456
  0.758750000000  0.174980661784
  0.759375000000  0.169328752957
  0.760000000000  0.163678654717
  0.760625000000  0.158030455764
  0.761250000000  0.152384244753
  0.761875000000  0.146740110295
  0.762500000000  0.141098140954
  0.763125000000  0.135458425243
  0.763750000000  0.129821051629
  0.764375000000  0.124186108525
  0.765000000000  0.118553684291
  0.765625000000  0.112923867235
  0.766250000000  0.107296745605
  0.766875000000  0.101672407597
  0.767500000000  0.096050941342
  0.768125000000  0.090432434915
  0.768750000000  0.084816976328
  0.769375000000  0.079204653529
  0.770000000000  0.073595554400
  0.770625000000  0.067989766759
  0.771250000000  0.062387378354
  0.771875000000  0.056788476865
  0.772500000000  0.051193149900
  0.773125000000  0.045601484996
  0.773750000000  0.040013569613
  0.774375000000  0.034429491140
  0.775000000000  0.028849336886
  0.775625000000  0.023273194082
  0.776250000000  0.017701149879
  0.776875000000  0.012133291349
  0.777500000000  0.006569705478
  0.778125000000  0.001010479170
  0.778750000000 -0.004544300759
  0.779375000000 -0.010094547577
  0.780000000000 -0.015640174645
  0.780625000000 -0.021181095412
  0.781250000000 -0.026717223417
  0.781875000000 -0.032248472294
  0.782500000000 -0.037774755773
  0.783125000000 -0.043295987678
  0.783750000000 -0.048812081931
  0.784375000000 -0.054322952554
  0.785000000000 -0.059828513668
  0.785625000000 -0.065328679497
  0.786250000000 -0.070823364368
  0.786875000000 -0.076312482714
  0.787500000000 -0.081795949073
  0.788125000000 -0.087273678091
  0.788750000000 -0.092745584525
  0.789375000000 -0.098211583239
  0.790000000000 -0.103671589214
  0.790625000000 -0.109125517540
  0.791250000000 -0.114573283425
  0.791875000000 -0.120014802192
  0.792500000000 -0.125449989284
  0.793125000000 -0.130878760261
  0.793750000000 -0.136301030805
  0.794375000000 -0.141716716720
  0.795000000000 -0.147125733934
  0.795625000000 -0.152527998499
  0.796250000000 -0.157923426596
  0.796875000000 -0.163311934530
  0.797500000000 -0.168693438740
  0.798125000000 -0.174067855793
  0.798750000000 -0.179435102388
  0.799375000000 -0.184795095360
  0.800000000000 -0.190147751676
  0.800625000000 -0.195492988441
  0.801250000000 -0.200830722900
  0.801875000000 -0.206160872433
  0.802500000000 -0.211483354564
  0.803125000000 -0.216798086958
  0.803750000000 -0.222104987423
  0.804375000000 -0.227403973913
  0.805000000000 -0.232694964528
  0.805625000000 -0.237977877515
  0.806250000000 -0.243252631270
  0.806875000000 -0.248519144341
  0.807500000000 -0.253777335426
  0.808125000000 -0.259027123377
  0.808750000000 -0.264268427202
  0.809375000000 -0.269501166062
  0.810000000000 -0.274725259279
  0.810625000000 -0.279940626329
  0.811250000000 -0.285147186853
  0.811875000000 -0.290344860651
  0.812500000000 -0.295533567685
  0.813125000000 -0.300713228084
  0.813750000000 -0.305883762139
  0.814375000000 -0.311045090311
  0.815000000000 -0.316197133227
  0.815625000000 -0.321339811686
  0.816250000000 -0.326473046655
  0.816875000000 -0.331596759276
  0.817500000000 -0.336710870862
  0.818125000000 -0.341815302904
  0.818750000000 -0.346909977065
  0.819375000000 -0.351994815191
  0.820000000000 -0.357069739303
  0.820625000000 -0.362134671602
  0.821250000000 -0.367189534474
  0.821875000000 -0.372234250485
  0.822500000000 -0.377268742386
  0.823125000000 -0.382292933113
  0.823750000000 -0.387306745790
  0.824375000000 -0.392310103728
  0.825000000000 -0.397302930428
  0.825625000000 -0.402285149582
  0.826250000000 -0.407256685073
  0.826875000000 -0.412217460977
  0.827500000000 -0.417167401567
  0.828125000000 -0.422106431310
  0.828750000000 -0.427034474869
  0.829375000000 -0.431951457108
  0.830000000000 -0.436857303090
  0.830625000000 -0.441751938077
  0.831250000000 -0.446635287535
  0.831875000000 -0.451507277134
  0.832500000000 -0.456367832746
  0.833125000000 -0.461216880453
  0.833750000000 -0.466054346541
  0.834375000000 -0.470880157505
  0.835000000000 -0.475694240051
  0.835625000000 -0.480496521094
  0.836250000000 -0.485286927764
  0.836875000000 -0.490065387402
  0.837500000000 -0.494831827564
  0.838125000000 -0.499586176022
  0.838750000000 -0.504328360767
  0.839375000000 -0.509058310005
  0.840000000000 -0.513775952165
  0.840625000000 -0.518481215893
  0.841250000000 -0.523174030059
  0.841875000000 -0.527854323757
  0.842500000000 -0.532522026304
  0.843125000000 -0.537177067242
  0.843750000000 -0.541819376342
  0.844375000000 -0.546448883599
  0.845000000000 -0.551065519242
  0.845625000000 -0.555669213726
  0.846250000000 -0.560259897739
  0.846875000000 -0.564837502203
  0.847500000000 -0.569401958270
  0.848125000000 -0.573953197332
  0.848750000000 -0.578491151012
  0.849375000000 -0.583015751174
  0.850000000000 -0.587526929917
  0.850625000000 -0.592024619584
  0.851250000000 -0.596508752753
  0.851875000000 -0.600979262249
  0.852500000000 -0.605436081136
  0.853125000000 -0.609879142725
  0.853750000000 -0.614308380569
  0.854375000000 -0.618723728470
  0.855000000000 -0.623125120476
  0.855625000000 -0.627512490884
  0.856250000000 -0.631885774240
  0.856875000000 -0.636244905340
  0.857500000000 -0.640589819234
  0.858125000000 -0.644920451224
  0.858750000000 -0.649236736864
  0.859375000000 -0.653538611964
  0.860000000000 -0.657826012593
  0.860625000000 -0.662098875072
  0.861250000000 -0.666357135985
  0.861875000000 -0.670600732172
  0.862500000000 -0.674829600734
  0.863125000000 -0.679043679035
  0.863750000000 -0.683242904700
  0.864375000000 -0.687427215617
  0.865000000000 -0.691596549940
  0.865625000000 -0.695750846088
  0.866250000000 -0.699890042745
  0.866875000000 -0.704014078866
  0.867500000000 -0.708122893671
  0.868125000000 -0.712216426651
  0.868750000000 -0.716294617569
  0.869375000000 -0.720357406458
  0.870000000000 -0.724404733625
  0.870625000000 -0.728436539647
  0.871250000000 -0.732452765382
  0.871875000000 -0.736453351957
  0.872500000000 -0.740438240779
  0.873125000000 -0.744407373534
  0.873750000000 -0.748360692182
  0.874375000000 -0.752298138967
  0.875000000000 -0.756219656411
  0.875625000000 -0.760125187318
  0.876250000000 -0.764014674774
  0.876875000000 -0.767888062149
  0.877500000000 -0.771745293097
