      radius    pressure
  0.500000000000  0.873830121443
  0.500806451613  0.873832618940
  0.501612903226  0.873840086619
  0.502419354839  0.873852487455
  0.503225806452  0.873869784674
  0.504032258065  0.873891941751
  0.504838709677  0.873918922410
  0.505645161290  0.873950690619
  0.506451612903  0.873987210588
  0.507258064516  0.874028446770
  0.508064516129  0.874074363853
  0.508870967742  0.874124926763
  0.509677419355  0.874180100659
  0.510483870968  0.874239850932
  0.511290322581  0.874304143202
  0.512096774194  0.874372943315
  0.512903225806  0.874446217344
  0.513709677419  0.874523931584
  0.514516129032  0.874606052552
  0.515322580645  0.874692546981
  0.516129032258  0.874783381825
  0.516935483871  0.874878524249
  0.517741935484  0.874977941634
  0.518548387097  0.875081601569
  0.519354838710  0.875189471854
  0.520161290323  0.875301520496
  0.520967741935  0.875417715705
  0.521774193548  0.875538025897
  0.522580645161  0.875662419687
  0.523387096774  0.875790865892
  0.524193548387  0.875923333525
  0.525000000000  0.876059791796
  0.525806451613  0.876200210108
  0.526612903226  0.876344558057
  0.527419354839  0.876492805431
  0.528225806452  0.876644922204
  0.529032258065  0.876800878541
  0.529838709677  0.876960644789
  0.530645161290  0.877124191482
  0.531451612903  0.877291489333
  0.532258064516  0.877462509240
  0.533064516129  0.877637222276
  0.533870967742  0.877815599694
  0.534677419355  0.877997612920
  0.535483870968  0.878183233559
  0.536290322581  0.878372433384
  0.537096774194  0.878565184343
  0.537903225806  0.878761458550
  0.538709677419  0.878961228291
  0.539516129032  0.879164466017
  0.540322580645  0.879371144343
  0.541129032258  0.879581236051
  0.541935483871  0.879794714082
  0.542741935484  0.880011551541
  0.543548387097  0.880231721691
  0.544354838710  0.880455197953
  0.545161290323  0.880681953906
  0.545967741935  0.880911963283
  0.546774193548  0.881145199974
  0.547580645161  0.881381638018
  0.548387096774  0.881621251608
  0.549193548387  0.881864015087
  0.550000000000  0.882109902946
  0.550806451613  0.882358889824
  0.551612903226  0.882610950508
  0.552419354839  0.882866059927
  0.553225806452  0.883124193156
  0.554032258065  0.883385325413
  0.554838709677  0.883649432056
  0.555645161290  0.883916488584
  0.556451612903  0.884186470636
  0.557258064516  0.884459353987
  0.558064516129  0.884735114550
  0.558870967742  0.885013728374
  0.559677419355  0.885295171641
  0.560483870968  0.885579420668
  0.561290322581  0.885866451902
  0.562096774194  0.886156241925
  0.562903225806  0.886448767444
  0.563709677419  0.886744005299
  0.564516129032  0.887041932456
  0.565322580645  0.887342526008
  0.566129032258  0.887645763175
  0.566935483871  0.887951621300
  0.567741935484  0.888260077850
  0.568548387097  0.888571110417
  0.569354838710  0.888884696710
  0.570161290323  0.889200814565
  0.570967741935  0.889519441931
  0.571774193548  0.889840556882
  0.572580645161  0.890164137605
  0.573387096774  0.890490162406
  0.574193548387  0.890818609706
  0.575000000000  0.891149458043
  0.575806451613  0.891482686066
  0.576612903226  0.891818272540
  0.577419354839  0.892156196339
  0.578225806452  0.892496436452
  0.579032258065  0.892838971974
  0.579838709677  0.893183782114
  0.580645161290  0.893530846187
  0.581451612903  0.893880143616
  0.582258064516  0.894231653932
  0.583064516129  0.894585356770
  0.583870967742  0.894941231873
  0.584677419355  0.895299259086
  0.585483870968  0.895659418360
  0.586290322581  0.896021689745
  0.587096774194  0.896386053397
  0.587903225806  0.896752489572
  0.588709677419  0.897120978624
  0.589516129032  0.897491501009
  0.590322580645  0.897864037282
  0.591129032258  0.898238568095
  0.591935483871  0.898615074197
  0.592741935484  0.898993536435
  0.593548387097  0.899373935749
  0.594354838710  0.899756253179
  0.595161290323  0.900140469853
  0.595967741935  0.900526566998
  0.596774193548  0.900914525931
  0.597580645161  0.901304328062
  0.598387096774  0.901695954893
  0.599193548387  0.902089388015
  0.600000000000  0.902484609111
  0.600806451613  0.902881599952
  0.601612903226  0.903280342399
  0.602419354839  0.903680818401
  0.603225806452  0.904083009992
  0.604032258065  0.904486899296
  0.604838709677  0.904892468521
  0.605645161290  0.905299699962
  0.606451612903  0.905708575997
  0.607258064516  0.906119079090
  0.608064516129  0.906531191786
  0.608870967742  0.906944896716
  0.609677419355  0.907360176592
  0.610483870968  0.907777014207
  0.611290322581  0.908195392435
  0.612096774194  0.908615294233
  0.612903225806  0.909036702635
  0.613709677419  0.909459600755
  0.614516129032  0.909883971788
  0.615322580645  0.910309799004
  0.616129032258  0.910737065752
  0.616935483871  0.911165755459
  0.617741935484  0.911595851627
  0.618548387097  0.912027337835
  0.619354838710  0.912460197736
  0.620161290323  0.912894415060
  0.620967741935  0.913329973610
  0.621774193548  0.913766857262
  0.622580645161  0.914205049968
  0.623387096774  0.914644535748
  0.624193548387  0.915085298700
  0.625000000000  0.915527322990
  0.625806451613  0.915970592855
  0.626612903226  0.916415092605
  0.627419354839  0.916860806618
  0.628225806452  0.917307719344
  0.629032258065  0.917755815299
  0.629838709677  0.918205079072
  0.630645161290  0.918655495317
  0.631451612903  0.919107048756
  0.632258064516  0.919559724179
  0.633064516129  0.920013506444
  0.633870967742  0.920468380473
  0.634677419355  0.920924331257
  0.635483870968  0.921381343849
  0.636290322581  0.921839403369
  0.637096774194  0.922298495002
  0.637903225806  0.922758603995
  0.638709677419  0.923219715662
  0.639516129032  0.923681815377
  0.640322580645  0.924144888579
  0.641129032258  0.924608920769
  0.641935483871  0.925073897508
  0.642741935484  0.925539804422
  0.643548387097  0.926006627196
  0.644354838710  0.926474351576
  0.645161290323  0.926942963369
  0.645967741935  0.927412448441
  0.646774193548  0.927882792718
  0.647580645161  0.928353982185
  0.648387096774  0.928826002887
  0.649193548387  0.929298840926
  0.650000000000  0.929772482462
  0.650806451613  0.930246913714
  0.651612903226  0.930722120956
  0.652419354839  0.931198090520
  0.653225806452  0.931674808796
  0.654032258065  0.932152262228
  0.654838709677  0.932630437317
  0.655645161290  0.933109320618
  0.656451612903  0.933588898743
  0.657258064516  0.934069158357
  0.658064516129  0.934550086180
  0.658870967742  0.935031668987
  0.659677419355  0.935513893604
  0.660483870968  0.935996746914
  0.661290322581  0.936480215851
  0.662096774194  0.936964287400
  0.662903225806  0.937448948601
  0.663709677419  0.937934186544
  0.664516129032  0.938419988374
  0.665322580645  0.938906341282
  0.666129032258  0.939393232516
  0.666935483871  0.939880649369
  0.667741935484  0.940368579188
  0.668548387097  0.940857009370
  0.669354838710  0.941345927361
  0.670161290323  0.941835320655
  0.670967741935  0.942325176797
  0.671774193548  0.942815483382
  0.672580645161  0.943306228049
  0.673387096774  0.943797398491
  0.674193548387  0.944288982445
  0.675000000000  0.944780967697
  0.675806451613  0.945273342081
  0.676612903226  0.945766093476
  0.677419354839  0.946259209810
  0.678225806452  0.946752679057
  0.679032258065  0.947246489238
  0.679838709677  0.947740628417
  0.680645161290  0.948235084706
  0.681451612903  0.948729846264
  0.682258064516  0.949224901293
  0.683064516129  0.949720238039
  0.683870967742  0.950215844795
  0.684677419355  0.950711709897
  0.685483870968  0.951207821727
  0.686290322581  0.951704168707
  0.687096774194  0.952200739308
  0.687903225806  0.952697522039
  0.688709677419  0.953194505456
  0.689516129032  0.953691678156
  0.690322580645  0.954189028779
  0.691129032258  0.954686546008
  0.691935483871  0.955184218567
  0.692741935484  0.955682035224
  0.693548387097  0.956179984786
  0.694354838710  0.956678056103
  0.695161290323  0.957176238067
  0.695967741935  0.957674519609
  0.696774193548  0.958172889702
  0.697580645161  0.958671337359
  0.698387096774  0.959169851634
  0.699193548387  0.959668421620
  0.700000000000  0.960167036452
  0.700806451613  0.960665685301
  0.701612903226  0.961164357382
  0.702419354839  0.961663041945
  0.703225806452  0.962161728282
  0.704032258065  0.962660405723
  0.704838709677  0.963159063634
  0.705645161290  0.963657691424
  0.706451612903  0.964156278536
  0.707258064516  0.964654814455
  0.708064516129  0.965153288699
  0.708870967742  0.965651690828
  0.709677419355  0.966150010436
  0.710483870968  0.966648237157
  0.711290322581  0.967146360660
  0.712096774194  0.967644370651
  0.712903225806  0.968142256874
  0.713709677419  0.968640009107
  0.714516129032  0.969137617167
  0.715322580645  0.969635070905
  0.716129032258  0.970132360209
  0.716935483871  0.970629475002
  0.717741935484  0.971126405242
  0.718548387097  0.971623140923
  0.719354838710  0.972119672075
  0.720161290323  0.972615988761
  0.720967741935  0.973112081080
  0.721774193548  0.973607939167
  0.722580645161  0.974103553187
  0.723387096774  0.974598913344
  0.724193548387  0.975094009873
  0.725000000000  0.975588833045
  0.725806451613  0.976083373164
  0.726612903226  0.976577620566
  0.727419354839  0.977071565622
  0.728225806452  0.977565198738
  0.729032258065  0.978058510348
  0.729838709677  0.978551490925
  0.730645161290  0.979044130970
  0.731451612903  0.979536421018
  0.732258064516  0.980028351639
  0.733064516129  0.980519913432
  0.733870967742  0.981011097029
  0.734677419355  0.981501893095
  0.735483870968  0.981992292326
  0.736290322581  0.982482285450
  0.737096774194  0.982971863226
  0.737903225806  0.983461016446
  0.738709677419  0.983949735931
  0.739516129032  0.984438012534
  0.740322580645  0.984925837141
  0.741129032258  0.985413200665
  0.741935483871  0.985900094053
  0.742741935484  0.986386508282
  0.743548387097  0.986872434356
  0.744354838710  0.987357863315
  0.745161290323  0.987842786225
  0.745967741935  0.988327194183
  0.746774193548  0.988811078315
  0.747580645161  0.989294429780
  0.748387096774  0.989777239763
  0.749193548387  0.990259499480
  0.750000000000  0.990741200176
  0.750806451613  0.991222333127
  0.751612903226  0.991702889634
  0.752419354839  0.992182861031
  0.753225806452  0.992662238679
  0.754032258065  0.993141013969
  0.754838709677  0.993619178318
  0.755645161290  0.994096723174
  0.756451612903  0.994573640013
  0.757258064516  0.995049920338
  0.758064516129  0.995525555681
  0.758870967742  0.996000537602
  0.759677419355  0.996474857688
  0.760483870968  0.996948507556
  0.761290322581  0.997421478848
  0.762096774194  0.997893763235
  0.762903225806  0.998365352415
  0.763709677419  0.998836238114
  0.764516129032  0.999306412084
  0.765322580645  0.999775866105
  0.766129032258  1.000244591983
  0.766935483871  1.000712581553
  0.767741935484  1.001179826674
  0.768548387097  1.001646319234
  0.769354838710  1.002112051147
  0.770161290323  1.002577014351
  0.770967741935  1.003041200814
  0.771774193548  1.003504602529
  0.772580645161  1.003967211513
  0.773387096774  1.004429019813
  0.774193548387  1.004890019498
  0.775000000000  1.005350202666
  0.775806451613  1.005809561438
  0.776612903226  1.006268087963
  0.777419354839  1.006725774414
  0.778225806452  1.007182612990
  0.779032258065  1.007638595916
  0.779838709677  1.008093715441
  0.780645161290  1.008547963840
  0.781451612903  1.009001333413
  0.782258064516  1.009453816485
  0.783064516129  1.009905405405
  0.783870967742  1.010356092549
  0.784677419355  1.010805870315
  0.785483870968  1.011254731127
  0.786290322581  1.011702667435
  0.787096774194  1.012149671709
  0.787903225806  1.012595736449
  0.788709677419  1.013040854175
  0.789516129032  1.013485017434
  0.790322580645  1.013928218794
  0.791129032258  1.014370450850
  0.791935483871  1.014811706220
  0.792741935484  1.015251977544
  0.793548387097  1.015691257490
  0.794354838710  1.016129538745
  0.795161290323  1.016566814023
  0.795967741935  1.017003076059
  0.796774193548  1.017438317614
  0.797580645161  1.017872531470
  0.798387096774  1.018305710434
  0.799193548387  1.018737847335
  0.800000000000  1.019168935026
  0.800806451613  1.019598966384
  0.801612903226  1.020027934305
  0.802419354839  1.020455831713
  0.803225806452  1.020882651552
  0.804032258065  1.021308386788
  0.804838709677  1.021733030413
  0.805645161290  1.022156575438
  0.806451612903  1.022579014899
  0.807258064516  1.023000341853
  0.808064516129  1.023420549381
  0.808870967742  1.023839630584
  0.809677419355  1.024257578587
  0.810483870968  1.024674386538
  0.811290322581  1.025090047605
  0.812096774194  1.025504554978
  0.812903225806  1.025917901872
  0.813709677419  1.026330081521
  0.814516129032  1.026741087181
  0.815322580645  1.027150912132
  0.816129032258  1.027559549674
  0.816935483871  1.027966993128
  0.817741935484  1.028373235839
  0.818548387097  1.028778271170
  0.819354838710  1.029182092510
  0.820161290323  1.029584693265
  0.820967741935  1.029986066866
  0.821774193548  1.030386206763
  0.822580645161  1.030785106427
  0.823387096774  1.031182759353
  0.824193548387  1.031579159053
  0.825000000000  1.031974299063
  0.825806451613  1.032368172940
  0.826612903226  1.032760774260
  0.827419354839  1.033152096621
  0.828225806452  1.033542133643
  0.829032258065  1.033930878964
  0.829838709677  1.034318326246
  0.830645161290  1.034704469168
  0.831451612903  1.035089301433
  0.832258064516  1.035472816762
  0.833064516129  1.035855008898
  0.833870967742  1.036235871604
  0.834677419355  1.036615398663
  0.835483870968  1.036993583879
  0.836290322581  1.037370421076
  0.837096774194  1.037745904097
  0.837903225806  1.038120026807
  0.838709677419  1.038492783091
  0.839516129032  1.038864166853
  0.840322580645  1.039234172016
  0.841129032258  1.039602792527
  0.841935483871  1.039970022348
  0.842741935484  1.040335855464
  0.843548387097  1.040700285879
  0.844354838710  1.041063307617
  0.845161290323  1.041424914721
  0.845967741935  1.041785101255
  0.846774193548  1.042143861300
  0.847580645161  1.042501188959
  0.848387096774  1.042857078354
  0.849193548387  1.043211523626
  0.850000000000  1.043564518936
  0.850806451613  1.043916058464
  0.851612903226  1.044266136409
  0.852419354839  1.044614746990
  0.853225806452  1.044961884445
  0.854032258065  1.045307543031
  0.854838709677  1.045651717025
  0.855645161290  1.045994400720
  0.856451612903  1.046335588433
  0.857258064516  1.046675274497
  0.858064516129  1.047013453264
  0.858870967742  1.047350119105
  0.859677419355  1.047685266411
  0.860483870968  1.048018889591
  0.861290322581  1.048350983073
  0.862096774194  1.048681541304
  0.862903225806  1.049010558749
  0.863709677419  1.049338029893
  0.864516129032  1.049663949238
  0.865322580645  1.049988311306
  0.866129032258  1.050311110637
  0.866935483871  1.050632341789
  0.867741935484  1.050951999340
  0.868548387097  1.051270077885
  0.869354838710  1.051586572038
  0.870161290323  1.051901476431
  0.870967741935  1.052214785716
  0.871774193548  1.052526494561
  0.872580645161  1.052836597654
  0.873387096774  1.053145089699
  0.874193548387  1.053451965421
  0.875000000000  1.053757219562
  0.875806451613  1.054060846882
  0.876612903226  1.054362842158
  0.877419354839  1.054663200188
  0.878225806452  1.054961915784
  0.879032258065  1.055258983780
  0.879838709677  1.055554399026
  0.880645161290  1.055848156389
  0.881451612903  1.056140250756
  0.882258064516  1.056430677030
  0.883064516129  1.056719430133
  0.883870967742  1.057006505005
  0.884677419355  1.057291896602
  0.885483870968  1.057575599900
  0.886290322581  1.057857609891
  0.887096774194  1.058137921585
  0.887903225806  1.058416530011
  0.888709677419  1.058693430213
  0.889516129032  1.058968617255
  0.890322580645  1.059242086217
  0.891129032258  1.059513832198
  0.891935483871  1.059783850313
  0.892741935484  1.060052135695
  0.893548387097  1.060318683494
  0.894354838710  1.060583488878
  0.895161290323  1.060846547032
  0.895967741935  1.061107853159
  0.896774193548  1.061367402479
  0.897580645161  1.061625190228
  0.898387096774  1.061881211660
  0.899193548387  1.062135462048
  0.900000000000  1.062387936680
  0.900806451613  1.062638630862
  0.901612903226  1.062887539916
  0.902419354839  1.063134659183
  0.903225806452  1.063379984019
  0.904032258065  1.063623509799
  0.904838709677  1.063865231914
  0.905645161290  1.064105145773
  0.906451612903  1.064343246799
  0.907258064516  1.064579530436
  0.908064516129  1.064813992142
  0.908870967742  1.065046627393
  0.909677419355  1.065277431682
  0.910483870968  1.065506400518
  0.911290322581  1.065733529428
  0.912096774194  1.065958813954
  0.912903225806  1.066182249657
  0.913709677419  1.066403832113
  0.914516129032  1.066623556916
  0.915322580645  1.066841419676
  0.916129032258  1.067057416018
  0.916935483871  1.067271541588
  0.917741935484  1.067483792043
  0.918548387097  1.067694163062
  0.919354838710  1.067902650337
  0.920161290323  1.068109249577
  0.920967741935  1.068313956509
  0.921774193548  1.068516766876
  0.922580645161  1.068717676436
  0.923387096774  1.068916680966
  0.924193548387  1.069113776256
  0.925000000000  1.069308958116
  0.925806451613  1.069502222371
  0.926612903226  1.069693564861
  0.927419354839  1.069882981443
  0.928225806452  1.070070467993
  0.929032258065  1.070256020400
  0.929838709677  1.070439634569
  0.930645161290  1.070621306425
  0.931451612903  1.070801031906
  0.932258064516  1.070978806966
  0.933064516129  1.071154627578
  0.933870967742  1.071328489728
  0.934677419355  1.071500389420
  0.935483870968  1.071670322675
  0.936290322581  1.071838285527
  0.937096774194  1.072004274030
  0.937903225806  1.072168284250
  0.938709677419  1.072330312272
  0.939516129032  1.072490354196
  0.940322580645  1.072648406139
  0.941129032258  1.072804464231
  0.941935483871  1.072958524623
  0.942741935484  1.073110583476
  0.943548387097  1.073260636973
  0.944354838710  1.073408681308
  0.945161290323  1.073554712693
  0.945967741935  1.073698727356
  0.946774193548  1.073840721541
  0.947580645161  1.073980691507
  0.948387096774  1.074118633529
  0.949193548387  1.074254543898
  0.950000000000  1.074388418922
  0.950806451613  1.074520254923
  0.951612903226  1.074650048239
  0.952419354839  1.074777795224
  0.953225806452  1.074903492249
  0.954032258065  1.075027135698
  0.954838709677  1.075148721974
  0.955645161290  1.075268247493
  0.956451612903  1.075385708687
  0.957258064516  1.075501102005
  0.958064516129  1.075614423912
  0.958870967742  1.075725670885
  0.959677419355  1.075834839421
  0.960483870968  1.075941926030
  0.961290322581  1.076046927237
  0.962096774194  1.076149839586
  0.962903225806  1.076250659633
  0.963709677419  1.076349383951
  0.964516129032  1.076446009128
  0.965322580645  1.076540531769
  0.966129032258  1.076632948491
  0.966935483871  1.076723255930
  0.967741935484  1.076811450737
  0.968548387097  1.076897529575
  0.969354838710  1.076981489128
  0.970161290323  1.077063326090
  0.970967741935  1.077143037173
  0.971774193548  1.077220619105
  0.972580645161  1.077296068628
  0.973387096774  1.077369382499
  0.974193548387  1.077440557492
  0.975000000000  1.077509590395
  0.975806451613  1.077576478012
  0.976612903226  1.077641217161
  0.977419354839  1.077703804677
  0.978225806452  1.077764237409
  0.979032258065  1.077822512222
  0.979838709677  1.077878625995
  0.980645161290  1.077932575624
  0.981451612903  1.077984358020
  0.982258064516  1.078033970106
  0.983064516129  1.078081408824
  0.983870967742  1.078126671130
  0.984677419355  1.078169753995
  0.985483870968  1.078210654404
  0.986290322581  1.078249369358
  0.987096774194  1.078285895875
