      radius    pressure
  0.500000000000 -1.736943520256
  0.501923076923 -1.736456844736
  0.503846153846 -1.734999047013
  0.505769230769 -1.732573854683
  0.507692307692 -1.729185506260
  0.509615384615 -1.724838748466
  0.511538461538 -1.719538833230
  0.513461538462 -1.713291514407
  0.515384615385 -1.706103044210
  0.517307692308 -1.697980169368
  0.519230769231 -1.688930126996
  0.521153846154 -1.678960640200
  0.523076923077 -1.668079913401
  0.525000000000 -1.656296627395
  0.526923076923 -1.643619934142
  0.528846153846 -1.630059451294
  0.530769230769 -1.615625256458
  0.532692307692 -1.600327881210
  0.534615384615 -1.584178304851
  0.536538461538 -1.567187947910
  0.538461538462 -1.549368665408
  0.540384615385 -1.530732739878
  0.542307692308 -1.511292874146
  0.544230769231 -1.491062183881
  0.546153846154 -1.470054189915
  0.548076923077 -1.448282810339
  0.550000000000 -1.425762352385
  0.551923076923 -1.402507504080
  0.553846153846 -1.378533325709
  0.555769230769 -1.353855241057
  0.557692307692 -1.328489028462
  0.559615384615 -1.302450811667
  0.561538461538 -1.275757050491
  0.563461538462 -1.248424531313
  0.565384615385 -1.220470357372
  0.567307692308 -1.191911938909
  0.569230769231 -1.162766983131
  0.571153846154 -1.133053484022
  0.573076923077 -1.102789711995
  0.575000000000 -1.071994203398
  0.576923076923 -1.040685749883
  0.578846153846 -1.008883387629
  0.580769230769 -0.976606386441
  0.582692307692 -0.943874238733
  0.584615384615 -0.910706648380
  0.586538461538 -0.877123519471
  0.588461538462 -0.843144944955
  0.590384615385 -0.808791195186
  0.592307692308 -0.774082706390
  0.594230769231 -0.739040069030
  0.596153846154 -0.703684016111
  0.598076923077 -0.668035411407
  0.600000000000 -0.632115237622
  0.601923076923 -0.595944584505
  0.603846153846 -0.559544636903
  0.605769230769 -0.522936662782
  0.607692307692 -0.486142001205
  0.609615384615 -0.449182050285
  0.611538461538 -0.412078255116
  0.613461538462 -0.374852095687
  0.615384615385 -0.337525074794
  0.617307692308 -0.300118705939
  0.619230769231 -0.262654501253
  0.621153846154 -0.225153959411
  0.623076923077 -0.187638553589
  0.625000000000 -0.150129719428
  0.626923076923 -0.112648843046
  0.628846153846 -0.075217249083
  0.630769230769 -0.037856188796
  0.632692307692 -0.000586828210
  0.634615384615  0.036569763676
  0.636538461538  0.073592626604
  0.638461538462  0.110460920714
  0.640384615385  0.147153938101
  0.642307692308  0.183651114299
  0.644230769231  0.219932039665
  0.646153846154  0.255976470659
  0.648076923077  0.291764341025
  0.650000000000  0.327275772851
  0.651923076923  0.362491087514
  0.653846153846  0.397390816496
  0.655769230769  0.431955712070
  0.657692307692  0.466166757845
  0.659615384615  0.500005179173
  0.661538461538  0.533452453399
  0.663461538462  0.566490319960
  0.665384615385  0.599100790320
  0.667307692308  0.631266157740
  0.669230769231  0.662969006876
  0.671153846154  0.694192223194
  0.673076923077  0.724919002212
  0.675000000000  0.755132858541
  0.676923076923  0.784817634747
  0.678846153846  0.813957510002
  0.680769230769  0.842537008539
  0.682692307692  0.870541007899
  0.684615384615  0.897954746963
  0.686538461538  0.924763833771
  0.688461538462  0.950954253118
  0.690384615385  0.976512373923
  0.692307692308  1.001424956375
  0.694230769231  1.025679158837
  0.696153846154  1.049262544523
  0.698076923077  1.072163087929
  0.700000000000  1.094369181018
  0.701923076923  1.115869639165
  0.703846153846  1.136653706845
  0.705769230769  1.156711063071
  0.707692307692  1.176031826575
  0.709615384615  1.194606560732
  0.711538461538  1.212426278216
  0.713461538462  1.229482445400
  0.715384615385  1.245766986485
  0.717307692308  1.261272287360
  0.719230769231  1.275991199198
  0.721153846154  1.289917041771
  0.723076923077  1.303043606495
  0.725000000000  1.315365159206
  0.726923076923  1.326876442646
  0.728846153846  1.337572678685
  0.730769230769  1.347449570256
  0.732692307692  1.356503303013
  0.734615384615  1.364730546708
  0.736538461538  1.372128456289
  0.738461538462  1.378694672714
  0.740384615385  1.384427323491
  0.742307692308  1.389325022924
  0.744230769231  1.393386872092
  0.746153846154  1.396612458536
  0.748076923077  1.399001855674
  0.750000000000  1.400555621934
  0.751923076923  1.401274799602
  0.753846153846  1.401160913403
  0.755769230769  1.400215968796
  0.757692307692  1.398442450001
  0.759615384615  1.395843317746
  0.761538461538  1.392422006744
  0.763461538462  1.388182422903
  0.765384615385  1.383128940259
  0.767307692308  1.377266397654
  0.769230769231  1.370600095136
  0.771153846154  1.363135790111
  0.773076923077  1.354879693225
  0.775000000000  1.345838463995
  0.776923076923  1.336019206183
  0.778846153846  1.325429462923
  0.780769230769  1.314077211593
  0.782692307692  1.301970858454
  0.784615384615  1.289119233034
  0.786538461538  1.275531582288
  0.788461538462  1.261217564513
  0.790384615385  1.246187243040
  0.792307692308  1.230451079694
  0.794230769231  1.214019928040
  0.796153846154  1.196905026403
  0.798076923077  1.179117990681
  0.800000000000  1.160670806940
  0.801923076923  1.141575823814
  0.803846153846  1.121845744703
  0.805769230769  1.101493619768
  0.807692307692  1.080532837747
  0.809615384615  1.058977117576
  0.811538461538  1.036840499837
  0.813461538462  1.014137338029
  0.815384615385  0.990882289663
  0.817307692308  0.967090307205
  0.819230769231  0.942776628849
  0.821153846154  0.917956769141
  0.823076923077  0.892646509458
  0.825000000000  0.866861888341
  0.826923076923  0.840619191693
  0.828846153846  0.813934942847
  0.830769230769  0.786825892512
  0.832692307692  0.759309008597
  0.834615384615  0.731401465927
  0.836538461538  0.703120635847
  0.838461538462  0.674484075733
  0.840384615385  0.645509518405
  0.842307692308  0.616214861456
  0.844230769231  0.586618156494
  0.846153846154  0.556737598319
  0.848076923077  0.526591514023
  0.850000000000  0.496198352033
  0.851923076923  0.465576671097
  0.853846153846  0.434745129224
  0.855769230769  0.403722472578
  0.857692307692  0.372527524341
  0.859615384615  0.341179173539
  0.861538461538  0.309696363859
  0.863461538462  0.278098082433
  0.865384615385  0.246403348630
  0.867307692308  0.214631202833
  0.869230769231  0.182800695221
  0.871153846154  0.150930874571
  0.873076923077  0.119040777066
  0.875000000000  0.087149415132
  0.876923076923  0.055275766303
  0.878846153846  0.023438762124
  0.880769230769 -0.008342722903
  0.882692307692 -0.040049882325
  0.884615384615 -0.071663988689
  0.886538461538 -0.103166404425
  0.888461538462 -0.134538592670
  0.890384615385 -0.165762128008
  0.892307692308 -0.196818707138
  0.894230769231 -0.227690159442
  0.896153846154 -0.258358457478
  0.898076923077 -0.288805727357
  0.900000000000 -0.319014259023
  0.901923076923 -0.348966516420
  0.903846153846 -0.378645147545
  0.905769230769 -0.408032994372
  0.907692307692 -0.437113102656
  0.909615384615 -0.465868731594
  0.911538461538 -0.494283363351
  0.913461538462 -0.522340712448
  0.915384615385 -0.550024734981
  0.917307692308 -0.577319637709
  0.919230769231 -0.604209886958
  0.921153846154 -0.630680217376
  0.923076923077 -0.656715640510
  0.925000000000 -0.682301453209
  0.926923076923 -0.707423245846
  0.928846153846 -0.732066910356
  0.930769230769 -0.756218648086
  0.932692307692 -0.779864977448
  0.934615384615 -0.802992741380
  0.936538461538 -0.825589114594
  0.938461538462 -0.847641610632
  0.940384615385 -0.869138088702
  0.942307692308 -0.890066760302
  0.944230769231 -0.910416195629
  0.946153846154 -0.930175329767
  0.948076923077 -0.949333468648
  0.950000000000 -0.967880294787
  0.951923076923 -0.985805872788
  0.953846153846 -1.003100654613
  0.955769230769 -1.019755484619
  0.957692307692 -1.035761604353
  0.959615384615 -1.051110657103
  0.961538461538 -1.065794692213
  0.963461538462 -1.079806169142
  0.965384615385 -1.093137961285
  0.967307692308 -1.105783359535
  0.969230769231 -1.117736075594
  0.971153846154 -1.128990245041
  0.973076923077 -1.139540430127
  0.975000000000 -1.149381622332
  0.976923076923 -1.158509244649
  0.978846153846 -1.166919153618
  0.980769230769 -1.174607641102
  0.982692307692 -1.181571435795
  0.984615384615 -1.187807704473
  0.986538461538 -1.193314052987
  0.988461538462 -1.198088526992
  0.990384615385 -1.202129612410
  0.992307692308 -1.205436235639
  0.994230769231 -1.208007763498
  0.996153846154 -1.209844002905
  0.998076923077 -1.210945200308
  1.000000000000 -1.211312040840
