      radius    pressure
  0.500000000000  0.873830121443
  0.501785714286  0.873842329907
  0.503571428571  0.873878687600
  0.505357142857  0.873938797494
  0.507142857143  0.874022268480
  0.508928571429  0.874128715252
  0.510714285714  0.874257758181
  0.512500000000  0.874409023202
  0.514285714286  0.874582141696
  0.516071428571  0.874776750381
  0.517857142857  0.874992491202
  0.519642857143  0.875229011223
  0.521428571429  0.875485962528
  0.523214285714  0.875763002114
  0.525000000000  0.876059791796
  0.526785714286  0.876375998110
  0.528571428571  0.876711292217
  0.530357142857  0.877065349814
  0.532142857143  0.877437851042
  0.533928571429  0.877828480400
  0.535714285714  0.878236926659
  0.537500000000  0.878662882777
  0.539285714286  0.879106045819
  0.541071428571  0.879566116879
  0.542857142857  0.880042800999
  0.544642857143  0.880535807094
  0.546428571429  0.881044847879
  0.548214285714  0.881569639797
  0.550000000000  0.882109902946
  0.551785714286  0.882665361010
  0.553571428571  0.883235741192
  0.555357142857  0.883820774152
  0.557142857143  0.884420193935
  0.558928571429  0.885033737912
  0.560714285714  0.885661146720
  0.562500000000  0.886302164198
  0.564285714286  0.886956537331
  0.566071428571  0.887624016190
  0.567857142857  0.888304353880
  0.569642857143  0.888997306479
  0.571428571429  0.889702632988
  0.573214285714  0.890420095280
  0.575000000000  0.891149458043
  0.576785714286  0.891890488736
  0.578571428571  0.892642957534
  0.580357142857  0.893406637286
  0.582142857143  0.894181303462
  0.583928571429  0.894966734112
  0.585714285714  0.895762709818
  0.587500000000  0.896569013649
  0.589285714286  0.897385431123
  0.591071428571  0.898211750160
  0.592857142857  0.899047761041
  0.594642857143  0.899893256371
  0.596428571429  0.900748031037
  0.598214285714  0.901611882172
  0.600000000000  0.902484609111
  0.601785714286  0.903366013362
  0.603571428571  0.904255898564
  0.605357142857  0.905154070456
  0.607142857143  0.906060336837
  0.608928571429  0.906974507539
  0.610714285714  0.907896394385
  0.612500000000  0.908825811165
  0.614285714286  0.909762573601
  0.616071428571  0.910706499313
  0.617857142857  0.911657407791
  0.619642857143  0.912615120368
  0.621428571429  0.913579460185
  0.623214285714  0.914550252166
  0.625000000000  0.915527322990
  0.626785714286  0.916510501060
  0.628571428571  0.917499616483
  0.630357142857  0.918494501035
  0.632142857143  0.919494988143
  0.633928571429  0.920500912855
  0.635714285714  0.921512111817
  0.637500000000  0.922528423248
  0.639285714286  0.923549686916
  0.641071428571  0.924575744117
  0.642857142857  0.925606437650
  0.644642857143  0.926641611795
  0.646428571429  0.927681112291
  0.648214285714  0.928724786315
  0.650000000000  0.929772482462
  0.651785714286  0.930824050723
  0.653571428571  0.931879342465
  0.655357142857  0.932938210410
  0.657142857143  0.934000508620
  0.658928571429  0.935066092473
  0.660714285714  0.936134818647
  0.662500000000  0.937206545102
  0.664285714286  0.938281131059
  0.666071428571  0.939358436989
  0.667857142857  0.940438324588
  0.669642857143  0.941520656765
  0.671428571429  0.942605297626
  0.673214285714  0.943692112454
  0.675000000000  0.944780967697
  0.676785714286  0.945871730951
  0.678571428571  0.946964270942
  0.680357142857  0.948058457517
  0.682142857143  0.949154161624
  0.683928571429  0.950251255301
  0.685714285714  0.951349611660
  0.687500000000  0.952449104873
  0.689285714286  0.953549610161
  0.691071428571  0.954651003778
  0.692857142857  0.955753162999
  0.694642857143  0.956855966107
  0.696428571429  0.957959292382
  0.698214285714  0.959063022085
  0.700000000000  0.960167036452
  0.701785714286  0.961271217675
  0.703571428571  0.962375448896
  0.705357142857  0.963479614193
  0.707142857143  0.964583598570
  0.708928571429  0.965687287945
  0.710714285714  0.966790569141
  0.712500000000  0.967893329873
  0.714285714286  0.968995458740
  0.716071428571  0.970096845213
  0.717857142857  0.971197379626
  0.719642857143  0.972296953169
  0.721428571429  0.973395457871
  0.723214285714  0.974492786600
  0.725000000000  0.975588833045
  0.726785714286  0.976683491715
  0.728571428571  0.977776657924
  0.730357142857  0.978868227784
  0.732142857143  0.979958098199
  0.733928571429  0.981046166853
  0.735714285714  0.982132332206
  0.737500000000  0.983216493480
  0.739285714286  0.984298550657
  0.741071428571  0.985378404469
  0.742857142857  0.986455956389
  0.744642857143  0.987531108624
  0.746428571429  0.988603764111
  0.748214285714  0.989673826506
  0.750000000000  0.990741200176
  0.751785714286  0.991805790199
  0.753571428571  0.992867502348
  0.755357142857  0.993926243092
  0.757142857143  0.994981919583
  0.758928571429  0.996034439656
  0.760714285714  0.997083711818
  0.762500000000  0.998129645244
  0.764285714286  0.999172149769
  0.766071428571  1.000211135885
  0.767857142857  1.001246514733
  0.769642857143  1.002278198096
  0.771428571429  1.003306098398
  0.773214285714  1.004330128694
  0.775000000000  1.005350202666
  0.776785714286  1.006366234617
  0.778571428571  1.007378139470
  0.780357142857  1.008385832755
  0.782142857143  1.009389230612
  0.783928571429  1.010388249780
  0.785714285714  1.011382807596
  0.787500000000  1.012372821989
  0.789285714286  1.013358211474
  0.791071428571  1.014338895149
  0.792857142857  1.015314792690
  0.794642857143  1.016285824347
  0.796428571429  1.017251910940
  0.798214285714  1.018212973851
  0.800000000000  1.019168935026
  0.801785714286  1.020119716967
  0.803571428571  1.021065242728
  0.805357142857  1.022005435911
  0.807142857143  1.022940220663
  0.808928571429  1.023869521674
  0.810714285714  1.024793264170
  0.812500000000  1.025711373909
  0.814285714286  1.026623777180
  0.816071428571  1.027530400799
  0.817857142857  1.028431172104
  0.819642857143  1.029326018954
  0.821428571429  1.030214869721
  0.823214285714  1.031097653292
  0.825000000000  1.031974299063
  0.826785714286  1.032844736937
  0.828571428571  1.033708897318
  0.830357142857  1.034566711113
  0.832142857143  1.035418109724
  0.833928571429  1.036263025048
  0.835714285714  1.037101389472
  0.837500000000  1.037933135874
  0.839285714286  1.038758197614
  0.841071428571  1.039576508539
  0.842857142857  1.040388002971
  0.844642857143  1.041192615715
  0.846428571429  1.041990282045
  0.848214285714  1.042780937713
  0.850000000000  1.043564518936
  0.851785714286  1.044340962401
  0.853571428571  1.045110205260
  0.855357142857  1.045872185124
  0.857142857143  1.046626840069
  0.858928571429  1.047374108624
  0.860714285714  1.048113929778
  0.862500000000  1.048846242970
  0.864285714286  1.049570988092
  0.866071428571  1.050288105483
  0.867857142857  1.050997535932
  0.869642857143  1.051699220669
  0.871428571429  1.052393101370
  0.873214285714  1.053079120149
  0.875000000000  1.053757219562
  0.876785714286  1.054427342600
  0.878571428571  1.055089432687
  0.880357142857  1.055743433685
  0.882142857143  1.056389289883
  0.883928571429  1.057026946001
  0.885714285714  1.057656347188
  0.887500000000  1.058277439017
  0.889285714286  1.058890167485
  0.891071428571  1.059494479015
  0.892857142857  1.060090320447
  0.894642857143  1.060677639043
  0.896428571429  1.061256382481
  0.898214285714  1.061826498857
  0.900000000000  1.062387936680
  0.901785714286  1.062940644874
  0.903571428571  1.063484572772
  0.905357142857  1.064019670120
  0.907142857143  1.064545887072
  0.908928571429  1.065063174188
  0.910714285714  1.065571482435
  0.912500000000  1.066070763185
  0.914285714286  1.066560968214
  0.916071428571  1.067042049698
  0.917857142857  1.067513960214
  0.919642857143  1.067976652741
  0.921428571429  1.068430080652
  0.923214285714  1.068874197722
  0.925000000000  1.069308958116
  0.926785714286  1.069734316399
  0.928571428571  1.070150227526
  0.930357142857  1.070556646845
  0.932142857143  1.070953530095
  0.933928571429  1.071340833406
  0.935714285714  1.071718513296
  0.937500000000  1.072086526670
  0.939285714286  1.072444830822
  0.941071428571  1.072793383430
  0.942857142857  1.073132142556
  0.944642857143  1.073461066648
  0.946428571429  1.073780114536
  0.948214285714  1.074089245430
  0.950000000000  1.074388418922
  0.951785714286  1.074677594984
  0.953571428571  1.074956733967
  0.955357142857  1.075225796598
  0.957142857143  1.075484743984
  0.958928571429  1.075733537607
  0.960714285714  1.075972139322
  0.962500000000  1.076200511362
  0.964285714286  1.076418616331
  0.966071428571  1.076626417208
  0.967857142857  1.076823877340
  0.969642857143  1.077010960450
  0.971428571429  1.077187630627
  0.973214285714  1.077353852333
  0.975000000000  1.077509590395
  0.976785714286  1.077654810012
  0.978571428571  1.077789476746
  0.980357142857  1.077913556529
  0.982142857143  1.078027015657
  0.983928571429  1.078129820791
  0.985714285714  1.078221938956
  0.987500000000  1.078303337541
  0.989285714286  1.078373984298
  0.991071428571  1.078433847340
  0.992857142857  1.078482895144
  0.994642857143  1.078521096545
  0.996428571429  1.078548420740
  0.998214285714  1.078564837284
  1.000000000000  1.078570316091
