      radius    pressure
  0.500000000000 -1.734148606563
  0.500520833333 -1.734001598326
  0.501041666667 -1.733560792048
  0.501562500000 -1.732826551789
  0.502083333333 -1.731799290404
  0.502604166667 -1.730479469432
  0.503125000000 -1.728867598980
  0.503645833333 -1.726964237596
  0.504166666667 -1.724769992134
  0.504687500000 -1.722285517617
  0.505208333333 -1.719511517082
  0.505729166667 -1.716448741426
  0.506250000000 -1.713097989240
  0.506770833333 -1.709460106636
  0.507291666667 -1.705535987065
  0.507812500000 -1.701326571131
  0.508333333333 -1.696832846392
  0.508854166667 -1.692055847159
  0.509375000000 -1.686996654280
  0.509895833333 -1.681656394928
  0.510416666667 -1.676036242366
  0.510937500000 -1.670137415719
  0.511458333333 -1.663961179731
  0.511979166667 -1.657508844514
  0.512500000000 -1.650781765293
  0.513020833333 -1.643781342144
  0.513541666667 -1.636509019720
  0.514062500000 -1.628966286974
  0.514583333333 -1.621154676874
  0.515104166667 -1.613075766112
  0.515625000000 -1.604731174802
  0.516145833333 -1.596122566172
  0.516666666667 -1.587251646256
  0.517187500000 -1.578120163570
  0.517708333333 -1.568729908785
  0.518229166667 -1.559082714392
  0.518750000000 -1.549180454365
  0.519270833333 -1.539025043810
  0.519791666667 -1.528618438613
  0.520312500000 -1.517962635077
  0.520833333333 -1.507059669560
  0.521354166667 -1.495911618097
  0.521875000000 -1.484520596022
  0.522395833333 -1.472888757583
  0.522916666667 -1.461018295546
  0.523437500000 -1.448911440803
  0.523958333333 -1.436570461963
  0.524479166667 -1.423997664943
  0.525000000000 -1.411195392551
  0.525520833333 -1.398166024066
  0.526041666667 -1.384911974808
  0.526562500000 -1.371435695706
  0.527083333333 -1.357739672857
  0.527604166667 -1.343826427084
  0.528125000000 -1.329698513483
  0.528645833333 -1.315358520970
  0.529166666667 -1.300809071818
  0.529687500000 -1.286052821192
  0.530208333333 -1.271092456678
  0.530729166667 -1.255930697808
  0.531250000000 -1.240570295573
  0.531770833333 -1.225014031947
  0.532291666667 -1.209264719384
  0.532812500000 -1.193325200334
  0.533333333333 -1.177198346733
  0.533854166667 -1.160887059504
  0.534375000000 -1.144394268047
  0.534895833333 -1.127722929723
  0.535416666667 -1.110876029338
  0.535937500000 -1.093856578619
  0.536458333333 -1.076667615689
  0.536979166667 -1.059312204539
  0.537500000000 -1.041793434488
  0.538020833333 -1.024114419650
  0.538541666667 -1.006278298390
  0.539062500000 -0.988288232778
  0.539583333333 -0.970147408042
  0.540104166667 -0.951859032015
  0.540625000000 -0.933426334575
  0.541145833333 -0.914852567094
  0.541666666667 -0.896141001868
  0.542187500000 -0.877294931554
  0.542708333333 -0.858317668604
  0.543229166667 -0.839212544692
  0.543750000000 -0.819982910139
  0.544270833333 -0.800632133336
  0.544791666667 -0.781163600167
  0.545312500000 -0.761580713426
  0.545833333333 -0.741886892232
  0.546354166667 -0.722085571442
  0.546875000000 -0.702180201065
  0.547395833333 -0.682174245667
  0.547916666667 -0.662071183783
  0.548437500000 -0.641874507317
  0.548958333333 -0.621587720950
  0.549479166667 -0.601214341539
  0.550000000000 -0.580757897518
  0.550520833333 -0.560221928296
  0.551041666667 -0.539609983655
  0.551562500000 -0.518925623145
  0.552083333333 -0.498172415481
  0.552604166667 -0.477353937933
  0.553125000000 -0.456473775722
  0.553645833333 -0.435535521410
  0.554166666667 -0.414542774292
  0.554687500000 -0.393499139783
  0.555208333333 -0.372408228815
  0.555729166667 -0.351273657217
  0.556250000000 -0.330099045112
  0.556770833333 -0.308888016300
  0.557291666667 -0.287644197649
  0.557812500000 -0.266371218484
  0.558333333333 -0.245072709973
  0.558854166667 -0.223752304516
  0.559375000000 -0.202413635137
  0.559895833333 -0.181060334869
  0.560416666667 -0.159696036144
  0.560937500000 -0.138324370188
  0.561458333333 -0.116948966404
  0.561979166667 -0.095573451769
  0.562500000000 -0.074201450226
  0.563020833333 -0.052836582073
  0.563541666667 -0.031482463365
  0.564062500000 -0.010142705299
  0.564583333333  0.011179086378
  0.565104166667  0.032479311979
  0.565625000000  0.053754378476
  0.566145833333  0.075000700095
  0.566666666667  0.096214698917
  0.567187500000  0.117392805474
  0.567708333333  0.138531459340
  0.568229166667  0.159627109724
  0.568750000000  0.180676216060
  0.569270833333  0.201675248594
  0.569791666667  0.222620688969
  0.570312500000  0.243509030809
  0.570833333333  0.264336780301
  0.571354166667  0.285100456767
  0.571875000000  0.305796593248
  0.572395833333  0.326421737069
  0.572916666667  0.346972450413
  0.573437500000  0.367445310888
  0.573958333333  0.387836912089
  0.574479166667  0.408143864161
  0.575000000000  0.428362794354
  0.575520833333  0.448490347581
  0.576041666667  0.468523186966
  0.576562500000  0.488457994393
  0.577083333333  0.508291471051
  0.577604166667  0.528020337973
  0.578125000000  0.547641336573
  0.578645833333  0.567151229178
  0.579166666667  0.586546799560
  0.579687500000  0.605824853458
  0.580208333333  0.624982219101
  0.580729166667  0.644015747724
  0.581250000000  0.662922314081
  0.581770833333  0.681698816952
  0.582291666667  0.700342179648
  0.582812500000  0.718849350512
  0.583333333333  0.737217303411
  0.583854166667  0.755443038228
  0.584375000000  0.773523581347
  0.584895833333  0.791455986132
  0.585416666667  0.809237333408
  0.585937500000  0.826864731925
  0.586458333333  0.844335318829
  0.586979166667  0.861646260122
  0.587500000000  0.878794751115
  0.588020833333  0.895778016880
  0.588541666667  0.912593312696
  0.589062500000  0.929237924488
  0.589583333333  0.945709169258
  0.590104166667  0.962004395521
  0.590625000000  0.978120983718
  0.591145833333  0.994056346644
  0.591666666667  1.009807929851
  0.592187500000  1.025373212058
  0.592708333333  1.040749705551
  0.593229166667  1.055934956575
  0.593750000000  1.070926545724
  0.594270833333  1.085722088324
  0.594791666667  1.100319234803
  0.595312500000  1.114715671069
  0.595833333333  1.128909118867
  0.596354166667  1.142897336139
  0.596875000000  1.156678117375
  0.597395833333  1.170249293956
  0.597916666667  1.183608734495
  0.598437500000  1.196754345163
  0.598958333333  1.209684070021
  0.599479166667  1.222395891331
  0.600000000000  1.234887829876
  0.600520833333  1.247157945256
  0.601041666667  1.259204336195
  0.601562500000  1.271025140824
  0.602083333333  1.282618536972
  0.602604166667  1.293982742443
  0.603125000000  1.305116015283
  0.603645833333  1.316016654047
  0.604166666667  1.326682998055
  0.604687500000  1.337113427644
  0.605208333333  1.347306364406
  0.605729166667  1.357260271428
  0.606250000000  1.366973653517
  0.606770833333  1.376445057426
  0.607291666667  1.385673072062
  0.607812500000  1.394656328699
  0.608333333333  1.403393501172
  0.608854166667  1.411883306074
  0.609375000000  1.420124502936
  0.609895833333  1.428115894410
  0.610416666667  1.435856326435
  0.610937500000  1.443344688402
  0.611458333333  1.450579913306
  0.611979166667  1.457560977899
  0.612500000000  1.464286902826
  0.613020833333  1.470756752762
  0.613541666667  1.476969636531
  0.614062500000  1.482924707232
  0.614583333333  1.488621162341
  0.615104166667  1.494058243822
  0.615625000000  1.499235238215
  0.616145833333  1.504151476727
  0.616666666667  1.508806335314
  0.617187500000  1.513199234747
  0.617708333333  1.517329640686
  0.618229166667  1.521197063727
  0.618750000000  1.524801059461
  0.619270833333  1.528141228509
  0.619791666667  1.531217216560
  0.620312500000  1.534028714396
  0.620833333333  1.536575457914
  0.621354166667  1.538857228133
  0.621875000000  1.540873851200
  0.622395833333  1.542625198390
  0.622916666667  1.544111186086
  0.623437500000  1.545331775770
  0.623958333333  1.546286973989
  0.624479166667  1.546976832323
  0.625000000000  1.547401447346
  0.625520833333  1.547560960574
  0.626041666667  1.547455558407
  0.626562500000  1.547085472067
  0.627083333333  1.546450977529
  0.627604166667  1.545552395432
  0.628125000000  1.544390091005
  0.628645833333  1.542964473960
  0.629166666667  1.541275998401
  0.629687500000  1.539325162708
  0.630208333333  1.537112509423
  0.630729166667  1.534638625125
  0.631250000000  1.531904140300
  0.631770833333  1.528909729203
  0.632291666667  1.525656109708
  0.632812500000  1.522144043161
  0.633333333333  1.518374334213
  0.633854166667  1.514347830658
  0.634375000000  1.510065423256
  0.634895833333  1.505528045550
  0.635416666667  1.500736673678
  0.635937500000  1.495692326179
  0.636458333333  1.490396063785
  0.636979166667  1.484848989216
  0.637500000000  1.479052246960
  0.638020833333  1.473007023050
  0.638541666667  1.466714544834
  0.639062500000  1.460176080735
  0.639583333333  1.453392940008
  0.640104166667  1.446366472492
  0.640625000000  1.439098068345
  0.641145833333  1.431589157788
  0.641666666667  1.423841210825
  0.642187500000  1.415855736975
  0.642708333333  1.407634284980
  0.643229166667  1.399178442518
  0.643750000000  1.390489835908
  0.644270833333  1.381570129801
  0.644791666667  1.372421026877
  0.645312500000  1.363044267525
  0.645833333333  1.353441629523
  0.646354166667  1.343614927710
  0.646875000000  1.333566013651
  0.647395833333  1.323296775299
  0.647916666667  1.312809136645
  0.648437500000  1.302105057371
  0.648958333333  1.291186532492
  0.649479166667  1.280055591987
  0.650000000000  1.268714300439
  0.650520833333  1.257164756651
  0.651041666667  1.245409093275
  0.651562500000  1.233449476419
  0.652083333333  1.221288105260
  0.652604166667  1.208927211648
  0.653125000000  1.196369059702
  0.653645833333  1.183615945405
  0.654166666667  1.170670196191
  0.654687500000  1.157534170530
  0.655208333333  1.144210257505
  0.655729166667  1.130700876385
  0.656250000000  1.117008476192
  0.656770833333  1.103135535269
  0.657291666667  1.089084560836
  0.657812500000  1.074858088543
  0.658333333333  1.060458682024
  0.658854166667  1.045888932438
  0.659375000000  1.031151458013
  0.659895833333  1.016248903585
  0.660416666667  1.001183940123
  0.660937500000  0.985959264267
  0.661458333333  0.970577597844
  0.661979166667  0.955041687396
  0.662500000000  0.939354303691
  0.663020833333  0.923518241238
  0.663541666667  0.907536317799
  0.664062500000  0.891411373888
  0.664583333333  0.875146272281
  0.665104166667  0.858743897508
  0.665625000000  0.842207155353
  0.666145833333  0.825538972342
  0.666666666667  0.808742295236
  0.667187500000  0.791820090514
  0.667708333333  0.774775343857
  0.668229166667  0.757611059627
  0.668750000000  0.740330260344
  0.669270833333  0.722935986162
  0.669791666667  0.705431294339
  0.670312500000  0.687819258707
  0.670833333333  0.670102969138
  0.671354166667  0.652285531008
  0.671875000000  0.634370064662
  0.672395833333  0.616359704869
  0.672916666667  0.598257600285
  0.673437500000  0.580066912904
  0.673958333333  0.561790817514
  0.674479166667  0.543432501152
  0.675000000000  0.524995162548
  0.675520833333  0.506482011580
  0.676041666667  0.487896268716
  0.676562500000  0.469241164464
  0.677083333333  0.450519938815
  0.677604166667  0.431735840684
  0.678125000000  0.412892127355
  0.678645833333  0.393992063922
  0.679166666667  0.375038922725
  0.679687500000  0.356035982796
  0.680208333333  0.336986529290
  0.680729166667  0.317893852929
  0.681250000000  0.298761249435
  0.681770833333  0.279592018968
  0.682291666667  0.260389465563
  0.682812500000  0.241156896565
  0.683333333333  0.221897622067
  0.683854166667  0.202614954341
  0.684375000000  0.183312207280
  0.684895833333  0.163992695826
  0.685416666667  0.144659735415
  0.685937500000  0.125316641407
  0.686458333333  0.105966728524
  0.686979166667  0.086613310287
  0.687500000000  0.067259698455
  0.688020833333  0.047909202464
  0.688541666667  0.028565128862
  0.689062500000  0.009230780753
  0.689583333333 -0.010090542763
  0.690104166667 -0.029395547150
  0.690625000000 -0.048680942989
  0.691145833333 -0.067943446539
  0.691666666667 -0.087179780287
  0.692187500000 -0.106386673501
  0.692708333333 -0.125560862785
  0.693229166667 -0.144699092626
  0.693750000000 -0.163798115943
  0.694270833333 -0.182854694633
  0.694791666667 -0.201865600115
  0.695312500000 -0.220827613875
  0.695833333333 -0.239737528003
  0.696354166667 -0.258592145734
  0.696875000000 -0.277388281983
  0.697395833333 -0.296122763878
  0.697916666667 -0.314792431294
  0.698437500000 -0.333394137378
  0.698958333333 -0.351924749080
  0.699479166667 -0.370381147671
  0.700000000000 -0.388760229269
  0.700520833333 -0.407058905354
  0.701041666667 -0.425274103283
  0.701562500000 -0.443402766804
  0.702083333333 -0.461441856563
  0.702604166667 -0.479388350610
  0.703125000000 -0.497239244903
  0.703645833333 -0.514991553804
  0.704166666667 -0.532642310577
  0.704687500000 -0.550188567881
  0.705208333333 -0.567627398256
  0.705729166667 -0.584955894608
  0.706250000000 -0.602171170693
  0.706770833333 -0.619270361589
  0.707291666667 -0.636250624175
  0.707812500000 -0.653109137596
  0.708333333333 -0.669843103732
  0.708854166667 -0.686449747654
  0.709375000000 -0.702926318086
  0.709895833333 -0.719270087854
  0.710416666667 -0.735478354335
  0.710937500000 -0.751548439901
  0.711458333333 -0.767477692360
  0.711979166667 -0.783263485385
  0.712500000000 -0.798903218952
  0.713020833333 -0.814394319757
  0.713541666667 -0.829734241642
  0.714062500000 -0.844920466007
  0.714583333333 -0.859950502224
  0.715104166667 -0.874821888038
  0.715625000000 -0.889532189972
  0.716145833333 -0.904079003719
  0.716666666667 -0.918459954535
  0.717187500000 -0.932672697620
  0.717708333333 -0.946714918500
  0.718229166667 -0.960584333402
  0.718750000000 -0.974278689621
  0.719270833333 -0.987795765882
  0.719791666667 -1.001133372701
  0.720312500000 -1.014289352735
  0.720833333333 -1.027261581127
  0.721354166667 -1.040047965849
  0.721875000000 -1.052646448034
  0.722395833333 -1.065055002309
  0.722916666667 -1.077271637113
  0.723437500000 -1.089294395019
  0.723958333333 -1.101121353040
  0.724479166667 -1.112750622938
  0.725000000000 -1.124180351522
  0.725520833333 -1.135408720939
  0.726041666667 -1.146433948963
  0.726562500000 -1.157254289274
  0.727083333333 -1.167868031730
  0.727604166667 -1.178273502641
  0.728125000000 -1.188469065024
  0.728645833333 -1.198453118860
  0.729166666667 -1.208224101343
  0.729687500000 -1.217780487124
  0.730208333333 -1.227120788543
  0.730729166667 -1.236243555858
  0.731250000000 -1.245147377472
  0.731770833333 -1.253830880144
  0.732291666667 -1.262292729198
  0.732812500000 -1.270531628731
  0.733333333333 -1.278546321802
  0.733854166667 -1.286335590626
  0.734375000000 -1.293898256751
  0.734895833333 -1.301233181241
  0.735416666667 -1.308339264835
  0.735937500000 -1.315215448118
  0.736458333333 -1.321860711669
  0.736979166667 -1.328274076212
  0.737500000000 -1.334454602758
  0.738020833333 -1.340401392735
  0.738541666667 -1.346113588121
  0.739062500000 -1.351590371558
  0.739583333333 -1.356830966469
  0.740104166667 -1.361834637165
  0.740625000000 -1.366600688940
  0.741145833333 -1.371128468165
  0.741666666667 -1.375417362376
  0.742187500000 -1.379466800349
  0.742708333333 -1.383276252169
  0.743229166667 -1.386845229299
  0.743750000000 -1.390173284633
  0.744270833333 -1.393260012546
  0.744791666667 -1.396105048940
  0.745312500000 -1.398708071273
  0.745833333333 -1.401068798596
  0.746354166667 -1.403186991565
  0.746875000000 -1.405062452463
  0.747395833333 -1.406695025204
  0.747916666667 -1.408084595331
  0.748437500000 -1.409231090014
  0.748958333333 -1.410134478030
  0.749479166667 -1.410794769748
  0.750000000000 -1.411212017095
  0.750520833333 -1.411386313524
  0.751041666667 -1.411317793973
  0.751562500000 -1.411006634810
  0.752083333333 -1.410453053782
  0.752604166667 -1.409657309952
  0.753125000000 -1.408619703621
  0.753645833333 -1.407340576262
  0.754166666667 -1.405820310426
  0.754687500000 -1.404059329655
  0.755208333333 -1.402058098383
  0.755729166667 -1.399817121833
  0.756250000000 -1.397336945899
  0.756770833333 -1.394618157036
  0.757291666667 -1.391661382127
  0.757812500000 -1.388467288353
  0.758333333333 -1.385036583053
  0.758854166667 -1.381370013582
  0.759375000000 -1.377468367152
  0.759895833333 -1.373332470677
  0.760416666667 -1.368963190605
  0.760937500000 -1.364361432745
  0.761458333333 -1.359528142090
  0.761979166667 -1.354464302628
  0.762500000000 -1.349170937153
  0.763020833333 -1.343649107061
  0.763541666667 -1.337899912152
  0.764062500000 -1.331924490411
  0.764583333333 -1.325724017793
  0.765104166667 -1.319299707999
  0.765625000000 -1.312652812244
  0.766145833333 -1.305784619022
  0.766666666667 -1.298696453859
  0.767187500000 -1.291389679066
  0.767708333333 -1.283865693486
  0.768229166667 -1.276125932226
  0.768750000000 -1.268171866394
  0.769270833333 -1.260005002827
  0.769791666667 -1.251626883806
  0.770312500000 -1.243039086773
  0.770833333333 -1.234243224042
  0.771354166667 -1.225240942501
  0.771875000000 -1.216033923305
  0.772395833333 -1.206623881575
  0.772916666667 -1.197012566079
  0.773437500000 -1.187201758911
  0.773958333333 -1.177193275173
  0.774479166667 -1.166988962638
  0.775000000000 -1.156590701417
  0.775520833333 -1.146000403616
  0.776041666667 -1.135220012992
  0.776562500000 -1.124251504602
  0.777083333333 -1.113096884443
  0.777604166667 -1.101758189092
  0.778125000000 -1.090237485341
  0.778645833333 -1.078536869820
  0.779166666667 -1.066658468628
  0.779687500000 -1.054604436947
  0.780208333333 -1.042376958655
  0.780729166667 -1.029978245938
  0.781250000000 -1.017410538895
  0.781770833333 -1.004676105134
  0.782291666667 -0.991777239373
  0.782812500000 -0.978716263027
  0.783333333333 -0.965495523800
  0.783854166667 -0.952117395260
  0.784375000000 -0.938584276426
  0.784895833333 -0.924898591338
  0.785416666667 -0.911062788627
  0.785937500000 -0.897079341085
  0.786458333333 -0.882950745222
  0.786979166667 -0.868679520832
  0.787500000000 -0.854268210544
  0.788020833333 -0.839719379372
  0.788541666667 -0.825035614267
  0.789062500000 -0.810219523661
  0.789583333333 -0.795273737004
  0.790104166667 -0.780200904307
  0.790625000000 -0.765003695674
  0.791145833333 -0.749684800832
  0.791666666667 -0.734246928664
  0.792187500000 -0.718692806730
  0.792708333333 -0.703025180789
  0.793229166667 -0.687246814326
  0.793750000000 -0.671360488058
  0.794270833333 -0.655368999456
  0.794791666667 -0.639275162256
  0.795312500000 -0.623081805965
  0.795833333333 -0.606791775369
  0.796354166667 -0.590407930038
  0.796875000000 -0.573933143831
  0.797395833333 -0.557370304388
  0.797916666667 -0.540722312639
  0.798437500000 -0.523992082289
  0.798958333333 -0.507182539321
  0.799479166667 -0.490296621484
  0.800000000000 -0.473337277783
  0.800520833333 -0.456307467971
  0.801041666667 -0.439210162035
  0.801562500000 -0.422048339680
  0.802083333333 -0.404824989819
  0.802604166667 -0.387543110050
  0.803125000000 -0.370205706143
  0.803645833333 -0.352815791518
  0.804166666667 -0.335376386729
  0.804687500000 -0.317890518938
  0.805208333333 -0.300361221397
  0.805729166667 -0.282791532925
  0.806250000000 -0.265184497386
  0.806770833333 -0.247543163162
  0.807291666667 -0.229870582633
  0.807812500000 -0.212169811649
  0.808333333333 -0.194443909009
  0.808854166667 -0.176695935932
  0.809375000000 -0.158928955536
  0.809895833333 -0.141146032310
  0.810416666667 -0.123350231591
  0.810937500000 -0.105544619038
  0.811458333333 -0.087732260106
  0.811979166667 -0.069916219527
  0.812500000000 -0.052099560780
  0.813020833333 -0.034285345571
  0.813541666667 -0.016476633311
  0.814062500000  0.001323519408
  0.814583333333  0.019112059335
