      radius    pressure
  0.500000000000  1.735367758953
  0.500520833333  1.735285656143
  0.501041666667  1.735039458901
  0.501562500000  1.734629345224
  0.502083333333  1.734055508134
  0.502604166667  1.733318155652
  0.503125000000  1.732417510771
  0.503645833333  1.731353811417
  0.504166666667  1.730127310426
  0.504687500000  1.728738275506
  0.505208333333  1.727186989202
  0.505729166667  1.725473748863
  0.506250000000  1.723598866599
  0.506770833333  1.721562669249
  0.507291666667  1.719365498336
  0.507812500000  1.717007710026
  0.508333333333  1.714489675089
  0.508854166667  1.711811778849
  0.509375000000  1.708974421144
  0.509895833333  1.705978016275
  0.510416666667  1.702822992961
  0.510937500000  1.699509794290
  0.511458333333  1.696038877662
  0.511979166667  1.692410714748
  0.512500000000  1.688625791425
  0.513020833333  1.684684607731
  0.513541666667  1.680587677803
  0.514062500000  1.676335529824
  0.514583333333  1.671928705961
  0.515104166667  1.667367762308
  0.515625000000  1.662653268826
  0.516145833333  1.657785809276
  0.516666666667  1.652765981162
  0.517187500000  1.647594395661
  0.517708333333  1.642271677562
  0.518229166667  1.636798465195
  0.518750000000  1.631175410364
  0.519270833333  1.625403178280
  0.519791666667  1.619482447485
  0.520312500000  1.613413909787
  0.520833333333  1.607198270180
  0.521354166667  1.600836246776
  0.521875000000  1.594328570725
  0.522395833333  1.587675986141
  0.522916666667  1.580879250023
  0.523437500000  1.573939132178
  0.523958333333  1.566856415138
  0.524479166667  1.559631894083
  0.525000000000  1.552266376754
  0.525520833333  1.544760683374
  0.526041666667  1.537115646559
  0.526562500000  1.529332111238
  0.527083333333  1.521410934563
  0.527604166667  1.513352985819
  0.528125000000  1.505159146340
  0.528645833333  1.496830309417
  0.529166666667  1.488367380206
  0.529687500000  1.479771275638
  0.530208333333  1.471042924325
  0.530729166667  1.462183266465
  0.531250000000  1.453193253749
  0.531770833333  1.444073849263
  0.532291666667  1.434826027391
  0.532812500000  1.425450773721
  0.533333333333  1.415949084939
  0.533854166667  1.406321968734
  0.534375000000  1.396570443695
  0.534895833333  1.386695539211
  0.535416666667  1.376698295366
  0.535937500000  1.366579762835
  0.536458333333  1.356341002782
  0.536979166667  1.345983086751
  0.537500000000  1.335507096561
  0.538020833333  1.324914124200
  0.538541666667  1.314205271713
  0.539062500000  1.303381651097
  0.539583333333  1.292444384188
  0.540104166667  1.281394602550
  0.540625000000  1.270233447365
  0.541145833333  1.258962069321
  0.541666666667  1.247581628495
  0.542187500000  1.236093294242
  0.542708333333  1.224498245078
  0.543229166667  1.212797668567
  0.543750000000  1.200992761202
  0.544270833333  1.189084728287
  0.544791666667  1.177074783820
  0.545312500000  1.164964150377
  0.545833333333  1.152754058987
  0.546354166667  1.140445749015
  0.546875000000  1.128040468043
  0.547395833333  1.115539471742
  0.547916666667  1.102944023756
  0.548437500000  1.090255395576
  0.548958333333  1.077474866417
  0.549479166667  1.064603723092
  0.550000000000  1.051643259890
  0.550520833333  1.038594778448
  0.551041666667  1.025459587626
  0.551562500000  1.012239003381
  0.552083333333  0.998934348635
  0.552604166667  0.985546953155
  0.553125000000  0.972078153416
  0.553645833333  0.958529292478
  0.554166666667  0.944901719855
  0.554687500000  0.931196791381
  0.555208333333  0.917415869085
  0.555729166667  0.903560321057
  0.556250000000  0.889631521316
  0.556770833333  0.875630849679
  0.557291666667  0.861559691627
  0.557812500000  0.847419438173
  0.558333333333  0.833211485730
  0.558854166667  0.818937235973
  0.559375000000  0.804598095709
  0.559895833333  0.790195476739
  0.560416666667  0.775730795726
  0.560937500000  0.761205474055
  0.561458333333  0.746620937704
  0.561979166667  0.731978617100
  0.562500000000  0.717279946988
  0.563020833333  0.702526366292
  0.563541666667  0.687719317979
  0.564062500000  0.672860248918
  0.564583333333  0.657950609747
  0.565104166667  0.642991854735
  0.565625000000  0.627985441637
  0.566145833333  0.612932831562
  0.566666666667  0.597835488835
  0.567187500000  0.582694880852
  0.567708333333  0.567512477944
  0.568229166667  0.552289753241
  0.568750000000  0.537028182525
  0.569270833333  0.521729244099
  0.569791666667  0.506394418638
  0.570312500000  0.491025189056
  0.570833333333  0.475623040364
  0.571354166667  0.460189459527
  0.571875000000  0.444725935328
  0.572395833333  0.429233958224
  0.572916666667  0.413715020205
  0.573437500000  0.398170614659
  0.573958333333  0.382602236224
  0.574479166667  0.367011380653
  0.575000000000  0.351399544670
  0.575520833333  0.335768225830
  0.576041666667  0.320118922379
  0.576562500000  0.304453133114
  0.577083333333  0.288772357239
  0.577604166667  0.273078094228
  0.578125000000  0.257371843684
  0.578645833333  0.241655105195
  0.579166666667  0.225929378198
  0.579687500000  0.210196161837
  0.580208333333  0.194456954821
  0.580729166667  0.178713255285
  0.581250000000  0.162966560654
  0.581770833333  0.147218367496
  0.582291666667  0.131470171388
  0.582812500000  0.115723466774
  0.583333333333  0.099979746825
  0.583854166667  0.084240503304
  0.584375000000  0.068507226420
  0.584895833333  0.052781404699
  0.585416666667  0.037064524835
  0.585937500000  0.021358071560
  0.586458333333  0.005663527503
  0.586979166667 -0.010017626950
  0.587500000000 -0.025683913788
  0.588020833333 -0.041333857516
  0.588541666667 -0.056965985291
  0.589062500000 -0.072578827059
  0.589583333333 -0.088170915688
  0.590104166667 -0.103740787108
  0.590625000000 -0.119286980442
  0.591145833333 -0.134808038145
  0.591666666667 -0.150302506135
  0.592187500000 -0.165768933932
  0.592708333333 -0.181205874786
  0.593229166667 -0.196611885813
  0.593750000000 -0.211985528129
  0.594270833333 -0.227325366982
  0.594791666667 -0.242629971882
  0.595312500000 -0.257897916734
  0.595833333333 -0.273127779970
  0.596354166667 -0.288318144677
  0.596875000000 -0.303467598729
  0.597395833333 -0.318574734917
  0.597916666667 -0.333638151075
  0.598437500000 -0.348656450212
  0.598958333333 -0.363628240636
  0.599479166667 -0.378552136086
  0.600000000000 -0.393426755855
  0.600520833333 -0.408250724916
  0.601041666667 -0.423022674049
  0.601562500000 -0.437741239968
  0.602083333333 -0.452405065441
  0.602604166667 -0.467012799413
  0.603125000000 -0.481563097137
  0.603645833333 -0.496054620286
  0.604166666667 -0.510486037080
  0.604687500000 -0.524856022408
  0.605208333333 -0.539163257946
  0.605729166667 -0.553406432275
  0.606250000000 -0.567584241005
  0.606770833333 -0.581695386888
  0.607291666667 -0.595738579937
  0.607812500000 -0.609712537544
  0.608333333333 -0.623615984593
  0.608854166667 -0.637447653580
  0.609375000000 -0.651206284721
  0.609895833333 -0.664890626071
  0.610416666667 -0.678499433632
  0.610937500000 -0.692031471468
  0.611458333333 -0.705485511817
  0.611979166667 -0.718860335197
  0.612500000000 -0.732154730521
  0.613020833333 -0.745367495198
  0.613541666667 -0.758497435250
  0.614062500000 -0.771543365411
  0.614583333333 -0.784504109236
  0.615104166667 -0.797378499208
  0.615625000000 -0.810165376837
  0.616145833333 -0.822863592771
  0.616666666667 -0.835472006888
  0.617187500000 -0.847989488407
  0.617708333333 -0.860414915984
  0.618229166667 -0.872747177810
  0.618750000000 -0.884985171715
  0.619270833333 -0.897127805259
  0.619791666667 -0.909173995833
  0.620312500000 -0.921122670754
  0.620833333333 -0.932972767359
  0.621354166667 -0.944723233098
  0.621875000000 -0.956373025629
  0.622395833333 -0.967921112906
  0.622916666667 -0.979366473272
  0.623437500000 -0.990708095551
  0.623958333333 -1.001944979132
  0.624479166667 -1.013076134056
  0.625000000000 -1.024100581110
  0.625520833333 -1.035017351903
  0.626041666667 -1.045825488956
  0.626562500000 -1.056524045785
  0.627083333333 -1.067112086979
  0.627604166667 -1.077588688288
  0.628125000000 -1.087952936695
  0.628645833333 -1.098203930503
  0.629166666667 -1.108340779405
  0.629687500000 -1.118362604567
  0.630208333333 -1.128268538700
  0.630729166667 -1.138057726135
  0.631250000000 -1.147729322896
  0.631770833333 -1.157282496776
  0.632291666667 -1.166716427401
  0.632812500000 -1.176030306304
  0.633333333333 -1.185223336995
  0.633854166667 -1.194294735026
  0.634375000000 -1.203243728056
  0.634895833333 -1.212069555920
  0.635416666667 -1.220771470692
  0.635937500000 -1.229348736743
  0.636458333333 -1.237800630812
  0.636979166667 -1.246126442055
  0.637500000000 -1.254325472113
  0.638020833333 -1.262397035167
  0.638541666667 -1.270340457993
  0.639062500000 -1.278155080020
  0.639583333333 -1.285840253384
  0.640104166667 -1.293395342980
  0.640625000000 -1.300819726513
  0.641145833333 -1.308112794551
  0.641666666667 -1.315273950574
  0.642187500000 -1.322302611020
  0.642708333333 -1.329198205334
  0.643229166667 -1.335960176012
  0.643750000000 -1.342587978647
  0.644270833333 -1.349081081971
  0.644791666667 -1.355438967896
  0.645312500000 -1.361661131556
  0.645833333333 -1.367747081348
  0.646354166667 -1.373696338965
  0.646875000000 -1.379508439437
  0.647395833333 -1.385182931165
  0.647916666667 -1.390719375954
  0.648437500000 -1.396117349049
  0.648958333333 -1.401376439164
  0.649479166667 -1.406496248512
  0.650000000000 -1.411476392837
  0.650520833333 -1.416316501438
  0.651041666667 -1.421016217198
  0.651562500000 -1.425575196608
  0.652083333333 -1.429993109791
  0.652604166667 -1.434269640525
  0.653125000000 -1.438404486265
  0.653645833333 -1.442397358160
  0.654166666667 -1.446247981074
  0.654687500000 -1.449956093602
  0.655208333333 -1.453521448090
  0.655729166667 -1.456943810643
  0.656250000000 -1.460222961143
  0.656770833333 -1.463358693260
  0.657291666667 -1.466350814463
  0.657812500000 -1.469199146029
  0.658333333333 -1.471903523050
  0.658854166667 -1.474463794445
  0.659375000000 -1.476879822956
  0.659895833333 -1.479151485164
  0.660416666667 -1.481278671481
  0.660937500000 -1.483261286160
  0.661458333333 -1.485099247288
  0.661979166667 -1.486792486793
  0.662500000000 -1.488340950434
  0.663020833333 -1.489744597802
  0.663541666667 -1.491003402315
  0.664062500000 -1.492117351208
  0.664583333333 -1.493086445531
  0.665104166667 -1.493910700135
  0.665625000000 -1.494590143665
  0.666145833333 -1.495124818547
  0.666666666667 -1.495514780977
  0.667187500000 -1.495760100905
  0.667708333333 -1.495860862021
  0.668229166667 -1.495817161737
  0.668750000000 -1.495629111172
  0.669270833333 -1.495296835128
  0.669791666667 -1.494820472075
  0.670312500000 -1.494200174125
  0.670833333333 -1.493436107011
  0.671354166667 -1.492528450062
  0.671875000000 -1.491477396177
  0.672395833333 -1.490283151801
  0.672916666667 -1.488945936893
  0.673437500000 -1.487465984897
  0.673958333333 -1.485843542716
  0.674479166667 -1.484078870673
  0.675000000000 -1.482172242485
  0.675520833333 -1.480123945222
  0.676041666667 -1.477934279277
  0.676562500000 -1.475603558325
  0.677083333333 -1.473132109287
  0.677604166667 -1.470520272290
  0.678125000000 -1.467768400627
  0.678645833333 -1.464876860714
  0.679166666667 -1.461846032048
  0.679687500000 -1.458676307162
  0.680208333333 -1.455368091582
  0.680729166667 -1.451921803775
  0.681250000000 -1.448337875106
  0.681770833333 -1.444616749788
  0.682291666667 -1.440758884831
  0.682812500000 -1.436764749989
  0.683333333333 -1.432634827711
  0.683854166667 -1.428369613085
  0.684375000000 -1.423969613781
  0.684895833333 -1.419435350002
  0.685416666667 -1.414767354416
  0.685937500000 -1.409966172109
  0.686458333333 -1.405032360516
  0.686979166667 -1.399966489366
  0.687500000000 -1.394769140619
  0.688020833333 -1.389440908400
  0.688541666667 -1.383982398941
  0.689062500000 -1.378394230508
  0.689583333333 -1.372677033343
  0.690104166667 -1.366831449590
  0.690625000000 -1.360858133229
  0.691145833333 -1.354757750008
  0.691666666667 -1.348530977369
  0.692187500000 -1.342178504380
  0.692708333333 -1.335701031659
  0.693229166667 -1.329099271301
  0.693750000000 -1.322373946805
  0.694270833333 -1.315525792996
  0.694791666667 -1.308555555950
  0.695312500000 -1.301463992912
  0.695833333333 -1.294251872222
  0.696354166667 -1.286919973232
  0.696875000000 -1.279469086226
  0.697395833333 -1.271900012339
  0.697916666667 -1.264213563470
  0.698437500000 -1.256410562203
  0.698958333333 -1.248491841719
  0.699479166667 -1.240458245712
  0.700000000000 -1.232310628300
  0.700520833333 -1.224049853940
  0.701041666667 -1.215676797336
  0.701562500000 -1.207192343352
  0.702083333333 -1.198597386922
  0.702604166667 -1.189892832954
  0.703125000000 -1.181079596243
  0.703645833333 -1.172158601376
  0.704166666667 -1.163130782636
  0.704687500000 -1.153997083910
  0.705208333333 -1.144758458590
  0.705729166667 -1.135415869478
  0.706250000000 -1.125970288691
  0.706770833333 -1.116422697557
  0.707291666667 -1.106774086522
  0.707812500000 -1.097025455043
  0.708333333333 -1.087177811495
  0.708854166667 -1.077232173064
  0.709375000000 -1.067189565645
  0.709895833333 -1.057051023743
  0.710416666667 -1.046817590364
  0.710937500000 -1.036490316913
  0.711458333333 -1.026070263087
  0.711979166667 -1.015558496774
  0.712500000000 -1.004956093937
  0.713020833333 -0.994264138517
  0.713541666667 -0.983483722315
  0.714062500000 -0.972615944890
  0.714583333333 -0.961661913446
  0.715104166667 -0.950622742724
  0.715625000000 -0.939499554888
  0.716145833333 -0.928293479416
  0.716666666667 -0.917005652988
  0.717187500000 -0.905637219370
  0.717708333333 -0.894189329305
  0.718229166667 -0.882663140395
  0.718750000000 -0.871059816989
  0.719270833333 -0.859380530067
  0.719791666667 -0.847626457124
  0.720312500000 -0.835798782053
  0.720833333333 -0.823898695030
  0.721354166667 -0.811927392394
  0.721875000000 -0.799886076534
  0.722395833333 -0.787775955763
  0.722916666667 -0.775598244205
  0.723437500000 -0.763354161675
  0.723958333333 -0.751044933557
  0.724479166667 -0.738671790683
  0.725000000000 -0.726235969216
  0.725520833333 -0.713738710527
  0.726041666667 -0.701181261069
  0.726562500000 -0.688564872264
  0.727083333333 -0.675890800371
  0.727604166667 -0.663160306369
  0.728125000000 -0.650374655831
  0.728645833333 -0.637535118805
  0.729166666667 -0.624642969682
  0.729687500000 -0.611699487077
  0.730208333333 -0.598705953707
  0.730729166667 -0.585663656257
  0.731250000000 -0.572573885264
  0.731770833333 -0.559437934986
  0.732291666667 -0.546257103278
  0.732812500000 -0.533032691464
  0.733333333333 -0.519766004215
  0.733854166667 -0.506458349415
  0.734375000000 -0.493111038043
  0.734895833333 -0.479725384038
  0.735416666667 -0.466302704176
  0.735937500000 -0.452844317941
  0.736458333333 -0.439351547399
  0.736979166667 -0.425825717065
  0.737500000000 -0.412268153784
  0.738020833333 -0.398680186592
  0.738541666667 -0.385063146596
  0.739062500000 -0.371418366843
  0.739583333333 -0.357747182188
  0.740104166667 -0.344050929172
  0.740625000000 -0.330330945885
  0.741145833333 -0.316588571846
  0.741666666667 -0.302825147865
  0.742187500000 -0.289042015923
  0.742708333333 -0.275240519034
  0.743229166667 -0.261422001125
  0.743750000000 -0.247587806899
  0.744270833333 -0.233739281710
  0.744791666667 -0.219877771435
  0.745312500000 -0.206004622340
  0.745833333333 -0.192121180956
  0.746354166667 -0.178228793948
  0.746875000000 -0.164328807987
  0.747395833333 -0.150422569618
  0.747916666667 -0.136511425136
  0.748437500000 -0.122596720453
  0.748958333333 -0.108679800972
  0.749479166667 -0.094762011459
  0.750000000000 -0.080844695913
  0.750520833333 -0.066929197436
  0.751041666667 -0.053016858111
  0.751562500000 -0.039109018869
  0.752083333333 -0.025207019361
  0.752604166667 -0.011312197836
  0.753125000000  0.002574108993
  0.753645833333  0.016450566071
  0.754166666667  0.030315840132
  0.754687500000  0.044168599821
  0.755208333333  0.058007515824
  0.755729166667  0.071831260993
  0.756250000000  0.085638510471
  0.756770833333  0.099427941819
  0.757291666667  0.113198235140
  0.757812500000  0.126948073203
  0.758333333333  0.140676141572
  0.758854166667  0.154381128723
  0.759375000000  0.168061726176
  0.759895833333  0.181716628612
  0.760416666667  0.195344534000
  0.760937500000  0.208944143719
  0.761458333333  0.222514162678
  0.761979166667  0.236053299441
  0.762500000000  0.249560266348
  0.763020833333  0.263033779637
  0.763541666667  0.276472559560
  0.764062500000  0.289875330509
  0.764583333333  0.303240821134
  0.765104166667  0.316567764460
  0.765625000000  0.329854898011
  0.766145833333  0.343100963920
  0.766666666667  0.356304709058
  0.767187500000  0.369464885140
  0.767708333333  0.382580248850
  0.768229166667  0.395649561954
  0.768750000000  0.408671591417
  0.769270833333  0.421645109515
  0.769791666667  0.434568893954
  0.770312500000  0.447441727981
  0.770833333333  0.460262400499
  0.771354166667  0.473029706178
  0.771875000000  0.485742445571
  0.772395833333  0.498399425220
  0.772916666667  0.510999457772
  0.773437500000  0.523541362087
  0.773958333333  0.536023963348
  0.774479166667  0.548446093168
  0.775000000000  0.560806589704
  0.775520833333  0.573104297759
  0.776041666667  0.585338068890
  0.776562500000  0.597506761516
  0.777083333333  0.609609241024
  0.777604166667  0.621644379871
  0.778125000000  0.633611057691
  0.778645833333  0.645508161394
  0.779166666667  0.657334585275
  0.779687500000  0.669089231111
  0.780208333333  0.680771008262
  0.780729166667  0.692378833776
  0.781250000000  0.703911632482
  0.781770833333  0.715368337093
  0.782291666667  0.726747888304
  0.782812500000  0.738049234886
  0.783333333333  0.749271333785
  0.783854166667  0.760413150216
  0.784375000000  0.771473657758
  0.784895833333  0.782451838450
  0.785416666667  0.793346682877
  0.785937500000  0.804157190271
  0.786458333333  0.814882368596
  0.786979166667  0.825521234640
  0.787500000000  0.836072814104
  0.788020833333  0.846536141691
  0.788541666667  0.856910261193
  0.789062500000  0.867194225578
  0.789583333333  0.877387097077
  0.790104166667  0.887487947265
  0.790625000000  0.897495857147
  0.791145833333  0.907409917244
  0.791666666667  0.917229227668
  0.792187500000  0.926952898210
  0.792708333333  0.936580048415
  0.793229166667  0.946109807664
  0.793750000000  0.955541315249
  0.794270833333  0.964873720454
  0.794791666667  0.974106182627
  0.795312500000  0.983237871258
  0.795833333333  0.992267966052
  0.796354166667  1.001195657002
  0.796875000000  1.010020144460
  0.797395833333  1.018740639209
  0.797916666667  1.027356362533
  0.798437500000  1.035866546287
  0.798958333333  1.044270432961
  0.799479166667  1.052567275750
  0.800000000000  1.060756338620
  0.800520833333  1.068836896371
  0.801041666667  1.076808234699
  0.801562500000  1.084669650263
  0.802083333333  1.092420450744
  0.802604166667  1.100059954904
  0.803125000000  1.107587492647
  0.803645833333  1.115002405076
  0.804166666667  1.122304044551
  0.804687500000  1.129491774745
  0.805208333333  1.136564970698
  0.805729166667  1.143523018871
  0.806250000000  1.150365317198
  0.806770833333  1.157091275138
  0.807291666667  1.163700313726
  0.807812500000  1.170191865621
  0.808333333333  1.176565375154
  0.808854166667  1.182820298375
  0.809375000000  1.188956103101
  0.809895833333  1.194972268955
  0.810416666667  1.200868287417
  0.810937500000  1.206643661859
  0.811458333333  1.212297907591
  0.811979166667  1.217830551898
  0.812500000000  1.223241134082
  0.813020833333  1.228529205496
  0.813541666667  1.233694329582
  0.814062500000  1.238736081906
  0.814583333333  1.243654050194
