     radius          vR         vTh          vX          Pr 
  0.100000000000  0.000000000000  0.994001199632  0.944975294241  0.707218493795
  0.103703703704  0.000757489716  0.994025882398  0.945198556413  0.720662626176
  0.107407407407  0.001496487961  0.994050565254  0.945421896501  0.733884674606
  0.111111111111  0.002217135831  0.994075248200  0.945645313895  0.746886128849
  0.114814814815  0.002919574407  0.994099931235  0.945868807981  0.759668477498
  0.118518518519  0.003603944778  0.994124614359  0.946092378147  0.772233208073
  0.122222222222  0.004270388067  0.994149297570  0.946316023778  0.784581807119
  0.125925925926  0.004919045456  0.994173980868  0.946539744258  0.796715760308
  0.129629629630  0.005550058207  0.994198664253  0.946763538973  0.808636552528
  0.133333333333  0.006163567691  0.994223347722  0.946987407305  0.820345667982
  0.137037037037  0.006759715403  0.994248031276  0.947211348637  0.831844590277
  0.140740740741  0.007338642994  0.994272714915  0.947435362351  0.843134802507
  0.144444444444  0.007900492282  0.994297398636  0.947659447827  0.854217787345
  0.148148148148  0.008445405283  0.994322082439  0.947883604446  0.865095027120
  0.151851851852  0.008973524224  0.994346766324  0.948107831587  0.875768003894
  0.155555555556  0.009484991567  0.994371450290  0.948332128628  0.886238199543
  0.159259259259  0.009979950025  0.994396134336  0.948556494947  0.896507095822
  0.162962962963  0.010458542583  0.994420818462  0.948780929922  0.906576174438
  0.166666666667  0.010920912512  0.994445502666  0.949005432928  0.916446917108
  0.170370370370  0.011367203390  0.994470186948  0.949230003340  0.926120805627
  0.174074074074  0.011797559112  0.994494871307  0.949454640534  0.935599321917
  0.177777777778  0.012212123910  0.994519555742  0.949679343883  0.944883948087
  0.181481481481  0.012611042363  0.994544240253  0.949904112761  0.953976166478
  0.185185185185  0.012994459412  0.994568924839  0.950128946541  0.962877459711
  0.188888888889  0.013362520373  0.994593609499  0.950353844593  0.971589310726
  0.192592592593  0.013715370944  0.994618294232  0.950578806288  0.980113202828
  0.196296296296  0.014053157221  0.994642979037  0.950803830999  0.988450619714
  0.200000000000  0.014376025701  0.994667663915  0.951028918093  0.996603045512
  0.203703703704  0.014684123295  0.994692348864  0.951254066939  1.004571964809
  0.207407407407  0.014977597334  0.994717033883  0.951479276907  1.012358862677
  0.211111111111  0.015256595572  0.994741718971  0.951704547363  1.019965224698
  0.214814814815  0.015521266197  0.994766404129  0.951929877675  1.027392536983
  0.218518518519  0.015771757831  0.994791089354  0.952155267209  1.034642286198
  0.222222222222  0.016008219533  0.994815774647  0.952380715330  1.041715959574
  0.225925925926  0.016230800804  0.994840460006  0.952606221402  1.048615044927
  0.229629629630  0.016439651589  0.994865145431  0.952831784792  1.055341030673
  0.233333333333  0.016634922271  0.994889830922  0.953057404861  1.061895405836
  0.237037037037  0.016816763679  0.994914516476  0.953283080973  1.068279660062
  0.240740740741  0.016985327079  0.994939202094  0.953508812490  1.074495283631
  0.244444444444  0.017140764178  0.994963887775  0.953734598774  1.080543767463
  0.248148148148  0.017283227115  0.994988573518  0.953960439187  1.086426603128
  0.251851851852  0.017412868460  0.995013259322  0.954186333087  1.092145282858
  0.255555555556  0.017529841207  0.995037945187  0.954412279837  1.097701299546
  0.259259259259  0.017634298771  0.995062631112  0.954638278794  1.103096146763
  0.262962962963  0.017726394977  0.995087317095  0.954864329317  1.108331318761
  0.266666666667  0.017806284056  0.995112003137  0.955090430765  1.113408310481
  0.270370370370  0.017874120634  0.995136689237  0.955316582495  1.118328617562
  0.274074074074  0.017930059724  0.995161375393  0.955542783864  1.123093736348
  0.277777777778  0.017974256717  0.995186061605  0.955769034229  1.127705163896
  0.281481481481  0.018006867371  0.995210747873  0.955995332945  1.132164397987
  0.285185185185  0.018028047796  0.995235434195  0.956221679368  1.136472937134
  0.288888888889  0.018037954450  0.995260120571  0.956448072853  1.140632280588
  0.292592592593  0.018036744119  0.995284807000  0.956674512753  1.144643928354
  0.296296296296  0.018024573907  0.995309493481  0.956900998423  1.148509381198
  0.300000000000  0.018001601226  0.995334180014  0.957127529216  1.152230140656
  0.303703703704  0.017967983775  0.995358866598  0.957354104484  1.155807709048
  0.307407407407  0.017923879531  0.995383553231  0.957580723581  1.159243589488
  0.311111111111  0.017869446734  0.995408239914  0.957807385856  1.162539285894
  0.314814814815  0.017804843870  0.995432926645  0.958034090662  1.165696303001
  0.318518518519  0.017730229654  0.995457613425  0.958260837350  1.168716146369
  0.322222222222  0.017645763021  0.995482300251  0.958487625270  1.171600322398
  0.325925925926  0.017551603102  0.995506987123  0.958714453771  1.174350338338
  0.329629629630  0.017447909214  0.995531674041  0.958941322203  1.176967702293
  0.333333333333  0.017334840842  0.995556361004  0.959168229915  1.179453923241
  0.337037037037  0.017212557622  0.995581048010  0.959395176255  1.181810511034
  0.340740740741  0.017081219324  0.995605735060  0.959622160572  1.184038976409
  0.344444444444  0.016940985840  0.995630422153  0.959849182212  1.186140830998
  0.348148148148  0.016792017161  0.995655109287  0.960076240524  1.188117587329
  0.351851851852  0.016634473368  0.995679796462  0.960303334854  1.189970758834
  0.355555555556  0.016468514611  0.995704483678  0.960530464548  1.191701859852
  0.359259259259  0.016294301094  0.995729170933  0.960757628952  1.193312405628
  0.362962962963  0.016111993061  0.995753858226  0.960984827412  1.194803912318
  0.366666666667  0.015921750780  0.995778545558  0.961212059272  1.196177896984
  0.370370370370  0.015723734527  0.995803232927  0.961439323879  1.197435877593
  0.374074074074  0.015518104570  0.995827920332  0.961666620576  1.198579373011
  0.377777777778  0.015305021159  0.995852607773  0.961893948707  1.199609902995
  0.381481481481  0.015084644508  0.995877295249  0.962121307616  1.200528988189
  0.385185185185  0.014857134782  0.995901982760  0.962348696646  1.201338150107
  0.388888888889  0.014622652083  0.995926670303  0.962576115140  1.202038911126
  0.392592592593  0.014381356442  0.995951357880  0.962803562442  1.202632794470
  0.396296296296  0.014133407800  0.995976045488  0.963031037893  1.203121324191
  0.400000000000  0.013878966001  0.996000733128  0.963258540835  1.203506025155
  0.403703703704  0.013618190780  0.996025420798  0.963486070611  1.203788423019
  0.407407407407  0.013351241752  0.996050108498  0.963713626561  1.203970044213
  0.411111111111  0.013078278401  0.996074796227  0.963941208027  1.204052415912
  0.414814814815  0.012799460074  0.996099483984  0.964168814349  1.204037066015
  0.418518518519  0.012514945969  0.996124171769  0.964396444869  1.203925523118
  0.422222222222  0.012224895130  0.996148859580  0.964624098925  1.203719316487
  0.425925925926  0.011929466436  0.996173547417  0.964851775860  1.203419976028
  0.429629629630  0.011628818601  0.996198235279  0.965079475011  1.203029032260
  0.433333333333  0.011323110161  0.996222923166  0.965307195719  1.202548016285
  0.437037037037  0.011012499472  0.996247611077  0.965534937323  1.201978459754
  0.440740740741  0.010697144709  0.996272299010  0.965762699161  1.201321894839
  0.444444444444  0.010377203855  0.996296986966  0.965990480574  1.200579854201
  0.448148148148  0.010052834708  0.996321674943  0.966218280898  1.199753870957
  0.451851851852  0.009724194868  0.996346362941  0.966446099473  1.198845478650
  0.455555555556  0.009391441744  0.996371050958  0.966673935637  1.197856211219
  0.459259259259  0.009054732552  0.996395738995  0.966901788728  1.196787602965
  0.462962962963  0.008714224310  0.996420427051  0.967129658083  1.195641188524
  0.466666666667  0.008370073845  0.996445115124  0.967357543040  1.194418502835
  0.470370370370  0.008022437793  0.996469803214  0.967585442936  1.193121081113
  0.474074074074  0.007671472598  0.996494491320  0.967813357110  1.191750458823
  0.477777777778  0.007317334519  0.996519179441  0.968041284896  1.190308171650
  0.481481481481  0.006960179633  0.996543867577  0.968269225634  1.188795755479
  0.485185185185  0.006600163837  0.996568555728  0.968497178658  1.187214746365
  0.488888888889  0.006237442856  0.996593243891  0.968725143307  1.185566680519
  0.492592592593  0.005872172245  0.996617932067  0.968953118916  1.183853094278
  0.496296296296  0.005504507399  0.996642620254  0.969181104821  1.182075524095
  0.500000000000  0.005134603557  0.996667308452  0.969409100360  1.180235506516
  0.503703703704  0.004762615812  0.996691996661  0.969637104868  1.178334578166
  0.507407407407  0.004388699116  0.996716684878  0.969865117681  1.176374275736
  0.511111111111  0.004013008290  0.996741373105  0.970093138135  1.174356135968
  0.514814814815  0.003635698030  0.996766061339  0.970321165566  1.172281695645
  0.518518518519  0.003256922922  0.996790749581  0.970549199310  1.170152491585
  0.522222222222  0.002876837447  0.996815437829  0.970777238703  1.167970060628
  0.525925925926  0.002495595990  0.996840126082  0.971005283079  1.165735939632
  0.529629629630  0.002113352854  0.996864814341  0.971233331775  1.163451665467
  0.533333333333  0.001730262270  0.996889502603  0.971461384126  1.161118775013
  0.537037037037  0.001346478404  0.996914190869  0.971689439468  1.158738805154
  0.540740740741  0.000962155372  0.996938879138  0.971917497135  1.156313292778
  0.544444444444  0.000577447251  0.996963567408  0.972145556465  1.153843774774
  0.548148148148  0.000192508088  0.996988255680  0.972373616791  1.151331788031
  0.551851851852 -0.000192508088  0.997012943952  0.972601677450  1.148778869439
  0.555555555556 -0.000577447251  0.997037632224  0.972829737776  1.146186555889
  0.559259259259 -0.000962155372  0.997062320494  0.973057797105  1.143556384270
  0.562962962963 -0.001346478404  0.997087008763  0.973285854773  1.140889891472
  0.566666666667 -0.001730262270  0.997111697029  0.973513910115  1.138188614385
  0.570370370370 -0.002113352854  0.997136385291  0.973741962466  1.135454089895
  0.574074074074 -0.002495595990  0.997161073550  0.973970011162  1.132687854887
  0.577777777778 -0.002876837447  0.997185761803  0.974198055538  1.129891446241
  0.581481481481 -0.003256922922  0.997210450051  0.974426094930  1.127066400826
  0.585185185185 -0.003635698030  0.997235138293  0.974654128674  1.124214255502
  0.588888888889 -0.004013008290  0.997259826527  0.974882156105  1.121336547108
  0.592592592593 -0.004388699116  0.997284514754  0.975110176559  1.118434812461
  0.596296296296 -0.004762615812  0.997309202972  0.975338189373  1.115510588344
  0.600000000000 -0.005134603557  0.997333891180  0.975566193880  1.112565411502
  0.603703703704 -0.005504507399  0.997358579378  0.975794189419  1.109600818622
  0.607407407407 -0.005872172245  0.997383267566  0.976022175325  1.106618346332
  0.611111111111 -0.006237442856  0.997407955741  0.976250150934  1.103619531177
  0.614814814815 -0.006600163837  0.997432643905  0.976478115582  1.100605909608
  0.618518518519 -0.006960179633  0.997457332055  0.976706068607  1.097579017966
  0.622222222222 -0.007317334519  0.997482020191  0.976934009344  1.094540392458
  0.625925925926 -0.007671472598  0.997506708312  0.977161937131  1.091491569142
  0.629629629630 -0.008022437793  0.997531396419  0.977389851304  1.088434083902
  0.633333333333 -0.008370073845  0.997556084508  0.977617751201  1.085369472423
  0.637037037037 -0.008714224310  0.997580772581  0.977845636158  1.082299270168
  0.640740740741 -0.009054732552  0.997605460637  0.978073505513  1.079225012355
  0.644444444444 -0.009391441744  0.997630148674  0.978301358603  1.076148233922
  0.648148148148 -0.009724194868  0.997654836691  0.978529194767  1.073070469505
  0.651851851852 -0.010052834708  0.997679524689  0.978757013342  1.069993253405
  0.655555555556 -0.010377203855  0.997704212666  0.978984813667  1.066918119560
  0.659259259259 -0.010697144709  0.997728900622  0.979212595079  1.063846601514
  0.662962962963 -0.011012499472  0.997753588555  0.979440356918  1.060780232384
  0.666666666667 -0.011323110161  0.997778276466  0.979668098522  1.057720544831
  0.670370370370 -0.011628818601  0.997802964353  0.979895819230  1.054669071027
  0.674074074074 -0.011929466436  0.997827652215  0.980123518381  1.051627342623
  0.677777777778 -0.012224895130  0.997852340052  0.980351195315  1.048596890721
  0.681481481481 -0.012514945969  0.997877027864  0.980578849372  1.045579245839
  0.685185185185 -0.012799460074  0.997901715648  0.980806479891  1.042575937884
  0.688888888889 -0.013078278401  0.997926403405  0.981034086214  1.039588496122
  0.692592592593 -0.013351241752  0.997951091134  0.981261667680  1.036618449148
  0.696296296296 -0.013618190780  0.997975778834  0.981489223630  1.033667324863
  0.700000000000 -0.013878966001  0.998000466504  0.981716753405  1.030736650441
  0.703703703704 -0.014133407800  0.998025154144  0.981944256348  1.027827952311
  0.707407407407 -0.014381356442  0.998049841752  0.982171731799  1.024942756131
  0.711111111111 -0.014622652083  0.998074529329  0.982399179100  1.022082586767
  0.714814814815 -0.014857134782  0.998099216873  0.982626597595  1.019248968271
  0.718518518519 -0.015084644508  0.998123904383  0.982853986625  1.016443423867
  0.722222222222 -0.015305021159  0.998148591859  0.983081345534  1.013667475931
  0.725925925926 -0.015518104570  0.998173279300  0.983308673665  1.010922645978
  0.729629629630 -0.015723734527  0.998197966705  0.983535970362  1.008210454652
  0.733333333333 -0.015921750780  0.998222654074  0.983763234968  1.005532421710
  0.737037037037 -0.016111993061  0.998247341406  0.983990466829  1.002890066018
  0.740740740741 -0.016294301094  0.998272028700  0.984217665289  1.000284905543
  0.744444444444 -0.016468514611  0.998296715955  0.984444829693  0.997718457346
  0.748148148148 -0.016634473368  0.998321403170  0.984671959387  0.995192237584
  0.751851851852 -0.016792017161  0.998346090345  0.984899053717  0.992707761502
  0.755555555556 -0.016940985840  0.998370777479  0.985126112028  0.990266543440
  0.759259259259 -0.017081219324  0.998395464572  0.985353133669  0.987870096827
  0.762962962963 -0.017212557622  0.998420151622  0.985580117985  0.985519934195
  0.766666666667 -0.017334840842  0.998444838628  0.985807064326  0.983217567172
  0.770370370370 -0.017447909214  0.998469525591  0.986033972038  0.980964506497
  0.774074074074 -0.017551603102  0.998494212509  0.986260840470  0.978762262023
  0.777777777778 -0.017645763021  0.998518899381  0.986487668971  0.976612342725
  0.781481481481 -0.017730229654  0.998543586208  0.986714456890  0.974516256710
  0.785185185185 -0.017804843870  0.998568272987  0.986941203578  0.972475511227
  0.788888888889 -0.017869446734  0.998592959718  0.987167908384  0.970491612675
  0.792592592593 -0.017923879531  0.998617646401  0.987394570660  0.968566066615
  0.796296296296 -0.017967983775  0.998642333034  0.987621189756  0.966700377783
  0.800000000000 -0.018001601226  0.998667019618  0.987847765024  0.964896050095
  0.803703703704 -0.018024573907  0.998691706151  0.988074295817  0.963154586666
  0.807407407407 -0.018036744119  0.998716392632  0.988300781487  0.961477489815
  0.811111111111 -0.018037954450  0.998741079061  0.988527221388  0.959866261080
  0.814814814815 -0.018028047796  0.998765765437  0.988753614872  0.958322401226
  0.818518518519 -0.018006867371  0.998790451759  0.988979961295  0.956847410256
  0.822222222222 -0.017974256717  0.998815138027  0.989206260011  0.955442787425
  0.825925925926 -0.017930059724  0.998839824239  0.989432510376  0.954110031243
  0.829629629630 -0.017874120634  0.998864510395  0.989658711745  0.952850639491
  0.833333333333 -0.017806284056  0.998889196495  0.989884863476  0.951666109228
  0.837037037037 -0.017726394977  0.998913882537  0.990110964924  0.950557936796
  0.840740740741 -0.017634298771  0.998938568520  0.990337015447  0.949527617836
  0.844444444444 -0.017529841207  0.998963254445  0.990563014404  0.948576647287
  0.848148148148 -0.017412868460  0.998987940310  0.990788961153  0.947706519402
  0.851851851852 -0.017283227115  0.999012626114  0.991014855054  0.946918727751
  0.855555555556 -0.017140764178  0.999037311857  0.991240695466  0.946214765229
  0.859259259259 -0.016985327079  0.999061997538  0.991466481751  0.945596124067
  0.862962962963 -0.016816763679  0.999086683156  0.991692213268  0.945064295834
  0.866666666667 -0.016634922271  0.999111368711  0.991917889380  0.944620771451
  0.870370370370 -0.016439651589  0.999136054201  0.992143509449  0.944267041197
  0.874074074074 -0.016230800804  0.999160739626  0.992369072838  0.944004594720
  0.877777777778 -0.016008219533  0.999185424985  0.992594578911  0.943834921043
  0.881481481481 -0.015771757831  0.999210110278  0.992820027032  0.943759508582
  0.885185185185 -0.015521266197  0.999234795503  0.993045416565  0.943779845151
  0.888888888889 -0.015256595572  0.999259480661  0.993270746877  0.943897417985
  0.892592592593 -0.014977597334  0.999284165749  0.993496017334  0.944113713746
  0.896296296296 -0.014684123295  0.999308850768  0.993721227301  0.944430218548
  0.900000000000 -0.014376025701  0.999333535717  0.993946376148  0.944848417972
  0.903703703704 -0.014053157221  0.999358220595  0.994171463242  0.945369797090
  0.907407407407 -0.013715370944  0.999382905400  0.994396487952  0.945995840488
  0.911111111111 -0.013362520373  0.999407590134  0.994621449648  0.946728032295
  0.914814814815 -0.012994459412  0.999432274793  0.994846347700  0.947567856208
  0.918518518519 -0.012611042363  0.999456959379  0.995071181479  0.948516795531
  0.922222222222 -0.012212123910  0.999481643890  0.995295950357  0.949576333206
  0.925925925926 -0.011797559112  0.999506328325  0.995520653707  0.950747951853
  0.929629629630 -0.011367203390  0.999531012684  0.995745290901  0.952033133813
  0.933333333333 -0.010920912512  0.999555696966  0.995969861313  0.953433361193
  0.937037037037 -0.010458542583  0.999580381170  0.996194364319  0.954950115919
  0.940740740741 -0.009979950025  0.999605065296  0.996418799293  0.956584879782
  0.944444444444 -0.009484991567  0.999629749342  0.996643165613  0.958339134502
  0.948148148148 -0.008973524224  0.999654433308  0.996867462654  0.960214361784
  0.951851851852 -0.008445405283  0.999679117193  0.997091689795  0.962212043385
  0.955555555556 -0.007900492282  0.999703800996  0.997315846413  0.964333661178
  0.959259259259 -0.007338642994  0.999728484718  0.997539931890  0.966580697228
  0.962962962963 -0.006759715403  0.999753168356  0.997763945603  0.968954633864
  0.966666666667 -0.006163567691  0.999777851910  0.997987886936  0.971456953756
  0.970370370370 -0.005550058207  0.999802535379  0.998211755268  0.974089140001
  0.974074074074 -0.004919045456  0.999827218764  0.998435549982  0.976852676205
  0.977777777778 -0.004270388067  0.999851902062  0.998659270463  0.979749046569
  0.981481481481 -0.003603944778  0.999876585273  0.998882916094  0.982779735984
  0.985185185185 -0.002919574407  0.999901268397  0.999106486259  0.985946230121
  0.988888888889 -0.002217135831  0.999925951432  0.999329980346  0.989250015525
  0.992592592593 -0.001496487961  0.999950634378  0.999553397739  0.992692579716
  0.996296296296 -0.000757489716  0.999975317234  0.999776737828  0.996275411286
  1.000000000000 -0.000000000000  1.000000000000  1.000000000000  1.000000000000
