     radius          vR         vTh          vX          Pr 
  0.200000000000  0.003078985935  0.707690774280  0.707690774280  0.943529071108
  0.206060606061  0.003107487041  0.708015858187  0.708015858187  0.947328023995
  0.212121212121  0.003120196942  0.708318487525  0.708318487525  0.951083314557
  0.218181818182  0.003117483430  0.708619812633  0.708619812633  0.954794429049
  0.224242424242  0.003099713920  0.708940904583  0.708940904583  0.958460853727
  0.230303030303  0.003067255443  0.709304028899  0.709304028899  0.962082074850
  0.236363636364  0.003020474630  0.709733939089  0.709733939089  0.965657578677
  0.242424242424  0.002959737700  0.710259196788  0.710259196788  0.969186851474
  0.248484848485  0.002885410450  0.710913492181  0.710913492181  0.972669379508
  0.254545454545  0.002797858236  0.711736880061  0.711736880061  0.976104649050
  0.260606060606  0.002697445971  0.712776755071  0.712776755071  0.979492146377
  0.266666666667  0.002584538099  0.714088258004  0.714088258004  0.982831357770
  0.272727272727  0.002459498595  0.715733637643  0.715733637643  0.986121769517
  0.278787878788  0.002322690941  0.717779919431  0.717779919431  0.989362867912
  0.284848484848  0.002174478120  0.720294131356  0.720294131356  0.992554139258
  0.290909090909  0.002015222601  0.723335453281  0.723335453281  0.995695069866
  0.296969696970  0.001845286324  0.726944186344  0.726944186344  0.998785146058
  0.303030303030  0.001665030691  0.731128542456  0.731128542456  1.001823854167
  0.309090909091  0.001474816546  0.735851845974  0.735851845974  1.004810680540
  0.315151515152  0.001275004170  0.741024253427  0.741024253427  1.007745111540
  0.321212121212  0.001065953260  0.746503468715  0.746503468715  1.010626633547
  0.327272727273  0.000848022923  0.752107138731  0.752107138731  1.013454732963
  0.333333333333  0.000621571655  0.757635689436  0.757635689436  1.016228896209
  0.339393939394  0.000386957335  0.762900008103  0.762900008103  1.018948609738
  0.345454545455  0.000144537206  0.767746157141  0.767746157141  1.021613360030
  0.351515151515 -0.000105332135  0.772070678331  0.772070678331  1.024222633599
  0.357575757576 -0.000362294750  0.775824100486  0.775824100486  1.026775917002
  0.363636363636 -0.000625995377  0.779004516079  0.779004516079  1.029272696839
  0.369696969697 -0.000896079438  0.781645483995  0.781645483995  1.031712459762
  0.375757575758 -0.001172193057  0.783802611801  0.783802611801  1.034094692485
  0.381818181818 -0.001453983067  0.785541830256  0.785541830256  1.036418881787
  0.387878787879 -0.001741097031  0.786930724671  0.786930724671  1.038684514527
  0.393939393939 -0.002033183247  0.788033039042  0.788033039042  1.040891077652
  0.400000000000 -0.002329890765  0.788905804893  0.788905804893  1.043038058213
  0.406060606061 -0.002630869401  0.789598346673  0.789598346673  1.045124943375
  0.412121212121 -0.002935769744  0.790152478594  0.790152478594  1.047151220440
  0.418181818182 -0.003244243175  0.790603372562  0.790603372562  1.049116376859
  0.424242424242 -0.003555941873  0.790980750018  0.790980750018  1.051019900260
  0.430303030303 -0.003870518833  0.791310192176  0.791310192176  1.052861278473
  0.436363636364 -0.004187627874  0.791614464503  0.791614464503  1.054639999553
  0.442424242424 -0.004506923650  0.791914817224  0.791914817224  1.056355551820
  0.448484848485 -0.004828061667  0.792232262326  0.792232262326  1.058007423892
  0.454545454545 -0.005150698289  0.792588846201  0.792588846201  1.059595104732
  0.460606060606 -0.005474490751  0.793008939906  0.793008939906  1.061118083693
  0.466666666667 -0.005799097169  0.793520556541  0.793520556541  1.062575850579
  0.472727272727 -0.006124176555  0.794156674808  0.794156674808  1.063967895706
  0.478787878788 -0.006449388820  0.794956493017  0.794956493017  1.065293709980
  0.484848484848 -0.006774394792  0.795966450702  0.795966450702  1.066552784978
  0.490909090909 -0.007098856221  0.797240728361  0.797240728361  1.067744613046
  0.496969696970 -0.007422435789  0.798840772039  0.798840772039  1.068868687412
  0.503030303030 -0.007744797123  0.800833213936  0.800833213936  1.069924502309
  0.509090909091 -0.008065604798  0.803285443795  0.803285443795  1.070911553126
  0.515151515152 -0.008384524352  0.806258164452  0.806258164452  1.071829336567
  0.521212121212 -0.008701222290  0.809794732473  0.809794732473  1.072677350846
  0.527272727273 -0.009015366096  0.813908113736  0.813908113736  1.073455095904
  0.533333333333 -0.009326624235  0.818567834137  0.818567834137  1.074162073655
  0.539393939394 -0.009634666166  0.823690879582  0.823690879582  1.074797788273
  0.545454545455 -0.009939162347  0.829141079340  0.829141079340  1.075361746519
  0.551515151515 -0.010239784240  0.834740014722  0.834740014722  1.075853458109
  0.557575757576 -0.010536204319  0.840288777075  0.840288777075  1.076272436142
  0.563636363636 -0.010828096075  0.845595458997  0.845595458997  1.076618197590
  0.569696969697 -0.011115134021  0.850500653807  0.850500653807  1.076890263852
  0.575757575758 -0.011396993700  0.854894162636  0.854894162636  1.077088161395
  0.581818181818 -0.011673351684  0.858719949534  0.858719949534  1.077211422480
  0.587878787879 -0.011943885582  0.861970752059  0.861970752059  1.077259586000
  0.593939393939 -0.012208274043  0.864676438417  0.864676438417  1.077232198432
  0.600000000000 -0.012466196756  0.866890555474  0.866890555474  1.077128814930
  0.606060606061 -0.012717334459  0.868678285395  0.868678285395  1.076949000573
  0.612121212121 -0.012961368933  0.870107368657  0.870107368657  1.076692331793
  0.618181818182 -0.013197983011  0.871242233203  0.871242233203  1.076358398007
  0.624242424242 -0.013426860573  0.872140835337  0.872140835337  1.075946803485
  0.630303030303 -0.013647686550  0.872853470817  0.872853470817  1.075457169482
  0.636363636364 -0.013860146924  0.873422854932  0.873422854932  1.074889136679
  0.642424242424 -0.014063928725  0.873884928864  0.873884928864  1.074242367972
  0.648484848485 -0.014258720032  0.874270024798  0.874270024798  1.073516551656
  0.654545454545 -0.014444209971  0.874604168761  0.874604168761  1.072711405069
  0.660606060606 -0.014620088712  0.874910406464  0.874910406464  1.071826678749
  0.666666666667 -0.014786047467  0.875210107362  0.875210107362  1.070862161189
  0.672727272727 -0.014941778485  0.875524243763  0.875524243763  1.069817684254
  0.678787878788 -0.015086975051  0.875874662731  0.875874662731  1.068693129382
  0.684848484848 -0.015221331478  0.876285373217  0.876285373217  1.067488434644
  0.690909090909 -0.015344543104  0.876783860362  0.876783860362  1.066203602806
  0.696969696970 -0.015456306287  0.877402411025  0.877402411025  1.064838710518
  0.703030303030 -0.015556318395  0.878179383247  0.878179383247  1.063393918787
  0.709090909091 -0.015644277803  0.879160269747  0.879160269747  1.061869484906
  0.715151515152 -0.015719883884  0.880398284046  0.880398284046  1.060265776023
  0.721212121212 -0.015782836999  0.881954037900  0.881954037900  1.058583284582
  0.727272727273 -0.015832838491  0.883893701942  0.883893701942  1.056822645864
  0.733333333333 -0.015869590675  0.886284911681  0.886284911681  1.054984657892
  0.739393939394 -0.015892796825  0.889189725388  0.889189725388  1.053070304002
  0.745454545455 -0.015902161169  0.892654348188  0.892654348188  1.051080778397
  0.751515151515 -0.015897388873  0.896696290787  0.896696290787  1.049017515020
  0.757575757576 -0.015878186031  0.901291132228  0.901291132228  1.046882220146
  0.763636363636 -0.015844259651  0.906362673818  0.906362673818  1.044676909054
  0.769696969697 -0.015795317645  0.911781041347  0.911781041347  1.042403947220
  0.775757575758 -0.015731068815  0.917372097396  0.917372097396  1.040066096430
  0.781818181818 -0.015651222833  0.922938038820  0.922938038820  1.037666566236
  0.787878787879 -0.015555490235  0.928284571237  0.928284571237  1.035209071136
  0.793939393939 -0.015443582399  0.933247083791  0.933247083791  1.032697893801
  0.800000000000 -0.015315211533  0.937708712232  0.937708712232  1.030137954608
  0.806060606061 -0.015170090655  0.941606765948  0.941606765948  1.027534887566
  0.812121212121 -0.015007933578  0.944928439674  0.944928439674  1.024895122531
  0.818181818182 -0.014828454894  0.947699696551  0.947699696551  1.022225973338
  0.824242424242 -0.014631369952  0.949971832619  0.949971832619  1.019535731054
  0.830303030303 -0.014416394841  0.951809139401  0.951809139401  1.016833761062
  0.836363636364 -0.014183246372  0.953279421488  0.953279421488  1.014130602010
  0.842424242424 -0.013931642056  0.954447742363  0.954447742363  1.011438063762
  0.848484848485 -0.013661300087  0.955372965392  0.955372965392  1.008769320462
  0.854545454545 -0.013371939317  0.956106359511  0.956106359511  1.006138993435
  0.860606060606 -0.013063279237  0.956691554048  0.956691554048  1.003563217115
  0.866666666667 -0.012735039958  0.957165277810  0.957165277810  1.001059679325
  0.872727272727 -0.012386942181  0.957558494051  0.957558494051  0.998647625180
  0.878787878788 -0.012018707185  0.957897694148  0.957897694148  0.996347811681
  0.884848484848 -0.011630056796  0.958206224139  0.958206224139  0.994182397871
  0.890909090909 -0.011220713364  0.958505592277  0.958505592277  0.992174753431
  0.896969696970 -0.010790399746  0.958816750520  0.958816750520  0.990349167203
  0.903030303030 -0.010338839272  0.959161366032  0.959161366032  0.988730436720
  0.909090909091 -0.009865755731  0.959563105330  0.959563105330  0.987343321023
  0.915151515152 -0.009370873335  0.960048945244  0.960048945244  0.986211842508
  0.921212121212 -0.008853916705  0.960650499309  0.960650499309  0.985358429993
  0.927272727273 -0.008314610836  0.961405300288  0.961405300288  0.984802905182
  0.933333333333 -0.007752681077  0.962357901219  0.962357901219  0.984561328770
  0.939393939394 -0.007167853103  0.963560541024  0.963560541024  0.984644740217
  0.945454545455 -0.006559852889  0.965072964989  0.965072964989  0.985057846175
  0.951515151515 -0.005928406683  0.966960813394  0.966960813394  0.985797734598
  0.957575757576 -0.005273240981  0.969291850381  0.969291850381  0.986852712050
  0.963636363636 -0.004594082496  0.972129318452  0.972129318452  0.988201376772
  0.969696969697 -0.003890658135  0.975522054947  0.975522054947  0.989812045334
  0.975757575758 -0.003162694972  0.979491886620  0.979491886620  0.991642642323
  0.981818181818 -0.002409920218  0.984020263422  0.984020263422  0.993641137833
  0.987878787879 -0.001632061192  0.989037738600  0.989037738600  0.995746576386
  0.993939393939 -0.000828845300  0.994420843434  0.994420843434  0.997890686616
  1.000000000000 -0.000000000000  1.000000000000  1.000000000000  1.000000000000
