     radius          vR         vTh          vX          Pr 
  0.100000000000 -0.000000000000  0.996251124595  0.996251124595  0.996251124595
  0.107031250000  0.000028587864  0.996280395324  0.996280395324  1.002482930500
  0.114062500000  0.000055824709  0.996309666461  0.996309666461  1.008490047894
  0.121093750000  0.000081731982  0.996338938003  0.996338938003  1.014275500850
  0.128125000000  0.000106331132  0.996368209947  0.996368209947  1.019842313439
  0.135156250000  0.000129643606  0.996397482290  0.996397482290  1.025193509737
  0.142187500000  0.000151690853  0.996426755028  0.996426755028  1.030332113815
  0.149218750000  0.000172494319  0.996456028159  0.996456028159  1.035261149747
  0.156250000000  0.000192075455  0.996485301678  0.996485301678  1.039983641605
  0.163281250000  0.000210455707  0.996514575584  0.996514575584  1.044502613462
  0.170312500000  0.000227656524  0.996543849871  0.996543849871  1.048821089392
  0.177343750000  0.000243699353  0.996573124539  0.996573124539  1.052942093468
  0.184375000000  0.000258605643  0.996602399582  0.996602399582  1.056868649762
  0.191406250000  0.000272396841  0.996631674999  0.996631674999  1.060603782348
  0.198437500000  0.000285094397  0.996660950785  0.996660950785  1.064150515298
  0.205468750000  0.000296719757  0.996690226938  0.996690226938  1.067511872685
  0.212500000000  0.000307294369  0.996719503454  0.996719503454  1.070690878583
  0.219531250000  0.000316839683  0.996748780331  0.996748780331  1.073690557065
  0.226562500000  0.000325377145  0.996778057564  0.996778057564  1.076513932202
  0.233593750000  0.000332928204  0.996807335151  0.996807335151  1.079164028070
  0.240625000000  0.000339514308  0.996836613089  0.996836613089  1.081643868739
  0.247656250000  0.000345156905  0.996865891374  0.996865891374  1.083956478285
  0.254687500000  0.000349877443  0.996895170003  0.996895170003  1.086104880778
  0.261718750000  0.000353697369  0.996924448973  0.996924448973  1.088092100293
  0.268750000000  0.000356638133  0.996953728281  0.996953728281  1.089921160902
  0.275781250000  0.000358721182  0.996983007923  0.996983007923  1.091595086679
  0.282812500000  0.000359967963  0.997012287896  0.997012287896  1.093116901696
  0.289843750000  0.000360399926  0.997041568198  0.997041568198  1.094489630026
  0.296875000000  0.000360038518  0.997070848824  0.997070848824  1.095716295743
  0.303906250000  0.000358905187  0.997100129772  0.997100129772  1.096799922919
  0.310937500000  0.000357021381  0.997129411038  0.997129411038  1.097743535627
  0.317968750000  0.000354408548  0.997158692620  0.997158692620  1.098550157940
  0.325000000000  0.000351088136  0.997187974513  0.997187974513  1.099222813932
  0.332031250000  0.000347081594  0.997217256716  0.997217256716  1.099764527675
  0.339062500000  0.000342410368  0.997246539223  0.997246539223  1.100178323243
  0.346093750000  0.000337095908  0.997275822034  0.997275822034  1.100467224707
  0.353125000000  0.000331159662  0.997305105143  0.997305105143  1.100634256142
  0.360156250000  0.000324623076  0.997334388548  0.997334388548  1.100682441620
  0.367187500000  0.000317507600  0.997363672246  0.997363672246  1.100614805214
  0.374218750000  0.000309834681  0.997392956234  0.997392956234  1.100434370998
  0.381250000000  0.000301625768  0.997422240508  0.997422240508  1.100144163043
  0.388281250000  0.000292902307  0.997451525065  0.997451525065  1.099747205424
  0.395312500000  0.000283685749  0.997480809902  0.997480809902  1.099246522213
  0.402343750000  0.000273997540  0.997510095015  0.997510095015  1.098645137483
  0.409375000000  0.000263859128  0.997539380402  0.997539380402  1.097946075308
  0.416406250000  0.000253291962  0.997568666059  0.997568666059  1.097152359759
  0.423437500000  0.000242317489  0.997597951983  0.997597951983  1.096267014910
  0.430468750000  0.000230957158  0.997627238171  0.997627238171  1.095293064835
  0.437500000000  0.000219232416  0.997656524620  0.997656524620  1.094233533605
  0.444531250000  0.000207164712  0.997685811325  0.997685811325  1.093091445295
  0.451562500000  0.000194775493  0.997715098286  0.997715098286  1.091869823977
  0.458593750000  0.000182086208  0.997744385496  0.997744385496  1.090571693723
  0.465625000000  0.000169118305  0.997773672955  0.997773672955  1.089200078608
  0.472656250000  0.000155893232  0.997802960658  0.997802960658  1.087758002704
  0.479687500000  0.000142432436  0.997832248603  0.997832248603  1.086248490084
  0.486718750000  0.000128757366  0.997861536786  0.997861536786  1.084674564820
  0.493750000000  0.000114889469  0.997890825203  0.997890825203  1.083039250987
  0.500781250000  0.000100850194  0.997920113852  0.997920113852  1.081345572657
  0.507812500000  0.000086660990  0.997949402730  0.997949402730  1.079596553902
  0.514843750000  0.000072343302  0.997978691833  0.997978691833  1.077795218797
  0.521875000000  0.000057918581  0.998007981157  0.998007981157  1.075944591413
  0.528906250000  0.000043408274  0.998037270701  0.998037270701  1.074047695824
  0.535937500000  0.000028833828  0.998066560460  0.998066560460  1.072107556103
  0.542968750000  0.000014216693  0.998095850432  0.998095850432  1.070127196323
  0.550000000000 -0.000000421685  0.998125140612  0.998125140612  1.068109640557
  0.557031250000 -0.000015059857  0.998154430999  0.998154430999  1.066057912877
  0.564062500000 -0.000029676375  0.998183721588  0.998183721588  1.063975037358
  0.571093750000 -0.000044249791  0.998213012377  0.998213012377  1.061864038071
  0.578125000000 -0.000058758657  0.998242303362  0.998242303362  1.059727939090
  0.585156250000 -0.000073181525  0.998271594540  0.998271594540  1.057569764488
  0.592187500000 -0.000087496946  0.998300885908  0.998300885908  1.055392538337
  0.599218750000 -0.000101683474  0.998330177463  0.998330177463  1.053199284711
  0.606250000000 -0.000115719660  0.998359469201  0.998359469201  1.050993027683
  0.613281250000 -0.000129584056  0.998388761120  0.998388761120  1.048776791325
  0.620312500000 -0.000143255213  0.998418053215  0.998418053215  1.046553599712
  0.627343750000 -0.000156711684  0.998447345484  0.998447345484  1.044326476915
  0.634375000000 -0.000169932022  0.998476637924  0.998476637924  1.042098447007
  0.641406250000 -0.000182894777  0.998505930530  0.998505930530  1.039872534062
  0.648437500000 -0.000195578501  0.998535223302  0.998535223302  1.037651762153
  0.655468750000 -0.000207961748  0.998564516234  0.998564516234  1.035439155352
  0.662500000000 -0.000220023068  0.998593809323  0.998593809323  1.033237737733
  0.669531250000 -0.000231741014  0.998623102567  0.998623102567  1.031050533369
  0.676562500000 -0.000243094138  0.998652395963  0.998652395963  1.028880566332
  0.683593750000 -0.000254060992  0.998681689506  0.998681689506  1.026730860695
  0.690625000000 -0.000264620127  0.998710983194  0.998710983194  1.024604440532
  0.697656250000 -0.000274750096  0.998740277024  0.998740277024  1.022504329916
  0.704687500000 -0.000284429450  0.998769570992  0.998769570992  1.020433552919
  0.711718750000 -0.000293636742  0.998798865096  0.998798865096  1.018395133614
  0.718750000000 -0.000302350524  0.998828159331  0.998828159331  1.016392096075
  0.725781250000 -0.000310549347  0.998857453695  0.998857453695  1.014427464374
  0.732812500000 -0.000318211764  0.998886748185  0.998886748185  1.012504262585
  0.739843750000 -0.000325316326  0.998916042797  0.998916042797  1.010625514780
  0.746875000000 -0.000331841586  0.998945337528  0.998945337528  1.008794245032
  0.753906250000 -0.000337766095  0.998974632374  0.998974632374  1.007013477415
  0.760937500000 -0.000343068406  0.999003927334  0.999003927334  1.005286236001
  0.767968750000 -0.000347727071  0.999033222403  0.999033222403  1.003615544864
  0.775000000000 -0.000351720640  0.999062517578  0.999062517578  1.002004428075
  0.782031250000 -0.000355027667  0.999091812856  0.999091812856  1.000455909709
  0.789062500000 -0.000357626704  0.999121108234  0.999121108234  0.998973013839
  0.796093750000 -0.000359496302  0.999150403708  0.999150403708  0.997558764536
  0.803125000000 -0.000360615013  0.999179699276  0.999179699276  0.996216185875
  0.810156250000 -0.000360961390  0.999208994934  0.999208994934  0.994948301928
  0.817187500000 -0.000360513984  0.999238290678  0.999238290678  0.993758136768
  0.824218750000 -0.000359251347  0.999267586507  0.999267586507  0.992648714468
  0.831250000000 -0.000357152032  0.999296882416  0.999296882416  0.991623059102
  0.838281250000 -0.000354194590  0.999326178402  0.999326178402  0.990684194741
  0.845312500000 -0.000350357573  0.999355474462  0.999355474462  0.989835145460
  0.852343750000 -0.000345619533  0.999384770593  0.999384770593  0.989078935330
  0.859375000000 -0.000339959023  0.999414066791  0.999414066791  0.988418588426
  0.866406250000 -0.000333354593  0.999443363054  0.999443363054  0.987857128820
  0.873437500000 -0.000325784797  0.999472659379  0.999472659379  0.987397580585
  0.880468750000 -0.000317228186  0.999501955761  0.999501955761  0.987042967794
  0.887500000000 -0.000307663313  0.999531252197  0.999531252197  0.986796314520
  0.894531250000 -0.000297068728  0.999560548685  0.999560548685  0.986660644836
  0.901562500000 -0.000285422984  0.999589845222  0.999589845222  0.986638982815
  0.908593750000 -0.000272704634  0.999619141804  0.999619141804  0.986734352530
  0.915625000000 -0.000258892229  0.999648438427  0.999648438427  0.986949778053
  0.922656250000 -0.000243964320  0.999677735089  0.999677735089  0.987288283459
  0.929687500000 -0.000227899461  0.999707031786  0.999707031786  0.987752892820
  0.936718750000 -0.000210676203  0.999736328516  0.999736328516  0.988346630208
  0.943750000000 -0.000192273097  0.999765625275  0.999765625275  0.989072519697
  0.950781250000 -0.000172668697  0.999794922059  0.999794922059  0.989933585360
  0.957812500000 -0.000151841553  0.999824218866  0.999824218866  0.990932851270
  0.964843750000 -0.000129770219  0.999853515692  0.999853515692  0.992073341500
  0.971875000000 -0.000106433245  0.999882812534  0.999882812534  0.993358080123
  0.978906250000 -0.000081809185  0.999912109389  0.999912109389  0.994790091211
  0.985937500000 -0.000055876589  0.999941406254  0.999941406254  0.996372398838
  0.992968750000 -0.000028614010  0.999970703126  0.999970703126  0.998108027077
  1.000000000000  0.000000000000  1.000000000000  1.000000000000  1.000000000000
