     radius          vR         vTh          vX          Pr 
  0.200000000000  0.003078985935  0.707690774280  0.707690774280  0.943529071108
  0.201550387597  0.003087800394  0.707777282296  0.707777282296  0.944505023902
  0.203100775194  0.003095563540  0.707861249770  0.707861249770  0.945478144418
  0.204651162791  0.003102281535  0.707943054941  0.707943054941  0.946448424057
  0.206201550388  0.003107960543  0.708023067573  0.708023067573  0.947415854218
  0.207751937984  0.003112606724  0.708101650364  0.708101650364  0.948380426301
  0.209302325581  0.003116226237  0.708179160359  0.708179160359  0.949342131704
  0.210852713178  0.003118825241  0.708255950344  0.708255950344  0.950300961829
  0.212403100775  0.003120409890  0.708332370241  0.708332370241  0.951256908074
  0.213953488372  0.003120986340  0.708408768498  0.708408768498  0.952209961839
  0.215503875969  0.003120560743  0.708485493478  0.708485493478  0.953160114523
  0.217054263566  0.003119139252  0.708562894844  0.708562894844  0.954107357526
  0.218604651163  0.003116728014  0.708641324951  0.708641324951  0.955051682248
  0.220155038760  0.003113333179  0.708721140238  0.708721140238  0.955993080088
  0.221705426357  0.003108960893  0.708802702626  0.708802702626  0.956931542445
  0.223255813953  0.003103617300  0.708886380925  0.708886380925  0.957867060720
  0.224806201550  0.003097308543  0.708972552244  0.708972552244  0.958799626313
  0.226356589147  0.003090040763  0.709061603417  0.709061603417  0.959729230621
  0.227906976744  0.003081820101  0.709153932433  0.709153932433  0.960655865047
  0.229457364341  0.003072652694  0.709249949875  0.709249949875  0.961579520988
  0.231007751938  0.003062544678  0.709350080377  0.709350080377  0.962500189845
  0.232558139535  0.003051502187  0.709454764073  0.709454764073  0.963417863017
  0.234108527132  0.003039531354  0.709564458067  0.709564458067  0.964332531904
  0.235658914729  0.003026638310  0.709679637894  0.709679637894  0.965244187907
  0.237209302326  0.003012829184  0.709800798985  0.709800798985  0.966152822423
  0.238759689922  0.002998110102  0.709928458121  0.709928458121  0.967058426854
  0.240310077519  0.002982487191  0.710063154879  0.710063154879  0.967960992599
  0.241860465116  0.002965966574  0.710205453046  0.710205453046  0.968860511058
  0.243410852713  0.002948554372  0.710355942009  0.710355942009  0.969756973631
  0.244961240310  0.002930256705  0.710515238096  0.710515238096  0.970650371716
  0.246511627907  0.002911079691  0.710683985861  0.710683985861  0.971540696716
  0.248062015504  0.002891029447  0.710862859287  0.710862859287  0.972427940028
  0.249612403101  0.002870112085  0.711052562908  0.711052562908  0.973312093053
  0.251162790698  0.002848333720  0.711253832797  0.711253832797  0.974193147191
  0.252713178295  0.002825700460  0.711467437433  0.711467437433  0.975071093842
  0.254263565891  0.002802218414  0.711694178380  0.711694178380  0.975945924406
  0.255813953488  0.002777893689  0.711934890781  0.711934890781  0.976817630282
  0.257364341085  0.002752732388  0.712190443609  0.712190443609  0.977686202871
  0.258914728682  0.002726740615  0.712461739649  0.712461739649  0.978551633572
  0.260465116279  0.002699924469  0.712749715160  0.712749715160  0.979413913786
  0.262015503876  0.002672290050  0.713055339184  0.713055339184  0.980273034913
  0.263565891473  0.002643843452  0.713379612441  0.713379612441  0.981128988353
  0.265116279070  0.002614590771  0.713723565760  0.713723565760  0.981981765505
  0.266666666667  0.002584538099  0.714088258004  0.714088258004  0.982831357770
  0.268217054264  0.002553691526  0.714474773415  0.714474773415  0.983677756549
  0.269767441860  0.002522057140  0.714884218327  0.714884218327  0.984520953240
  0.271317829457  0.002489641027  0.715317717195  0.715317717195  0.985360939245
  0.272868217054  0.002456449271  0.715776407877  0.715776407877  0.986197705964
  0.274418604651  0.002422487953  0.716261436108  0.716261436108  0.987031244797
  0.275968992248  0.002387763153  0.716773949125  0.716773949125  0.987861547145
  0.277519379845  0.002352280949  0.717315088397  0.717315088397  0.988688604407
  0.279069767442  0.002316047415  0.717885981414  0.717885981414  0.989512407984
  0.280620155039  0.002279068625  0.718487732523  0.718487732523  0.990332949276
  0.282170542636  0.002241350650  0.719121412794  0.719121412794  0.991150219685
  0.283720930233  0.002202899557  0.719788048925  0.719788048925  0.991964210610
  0.285271317829  0.002163721414  0.720488611215  0.720488611215  0.992774913452
  0.286821705426  0.002123822285  0.721224000655  0.721224000655  0.993582319611
  0.288372093023  0.002083208230  0.721995035222  0.721995035222  0.994386420489
  0.289922480620  0.002041885311  0.722802435485  0.722802435485  0.995187207485
  0.291472868217  0.001999859584  0.723646809658  0.723646809658  0.995984672001
  0.293023255814  0.001957137104  0.724528638293  0.724528638293  0.996778805437
  0.294573643411  0.001913723924  0.725448258816  0.725448258816  0.997569599195
  0.296124031008  0.001869626095  0.726405850154  0.726405850154  0.998357044675
  0.297674418605  0.001824849663  0.727401417748  0.727401417748  0.999141133277
  0.299224806202  0.001779400675  0.728434779248  0.728434779248  0.999921856404
  0.300775193798  0.001733285174  0.729505551250  0.729505551250  1.000699205455
  0.302325581395  0.001686509201  0.730613137411  0.730613137411  1.001473171833
  0.303875968992  0.001639078794  0.731756718328  0.731756718328  1.002243746938
  0.305426356589  0.001590999990  0.732935243540  0.732935243540  1.003010922171
  0.306976744186  0.001542278821  0.734147426018  0.734147426018  1.003774688934
  0.308527131783  0.001492921319  0.735391739455  0.735391739455  1.004535038629
  0.310077519380  0.001442933513  0.736666418674  0.736666418674  1.005291962656
  0.311627906977  0.001392321428  0.737969463370  0.737969463370  1.006045452417
  0.313178294574  0.001341091089  0.739298645362  0.739298645362  1.006795499314
  0.314728682171  0.001289248517  0.740651519459  0.740651519459  1.007542094748
  0.316279069767  0.001236799730  0.742025437930  0.742025437930  1.008285230121
  0.317829457364  0.001183750744  0.743417568484  0.743417568484  1.009024896836
  0.319379844961  0.001130107573  0.744824915580  0.744824915580  1.009761086293
  0.320930232558  0.001075876227  0.746244344768  0.746244344768  1.010493789896
  0.322480620155  0.001021062716  0.747672609673  0.747672609673  1.011222999045
  0.324031007752  0.000965673046  0.749106381155  0.749106381155  1.011948705144
  0.325581395349  0.000909713218  0.750542278104  0.750542278104  1.012670899594
  0.327131782946  0.000853189234  0.751976899269  0.751976899269  1.013389573799
  0.328682170543  0.000796107092  0.753406855495  0.753406855495  1.014104719160
  0.330232558140  0.000738472787  0.754828801711  0.754828801711  1.014816327080
  0.331782945736  0.000680292311  0.756239468043  0.756239468043  1.015524388962
  0.333333333333  0.000621571655  0.757635689436  0.757635689436  1.016228896209
  0.334883720930  0.000562316806  0.759014433230  0.759014433230  1.016929840224
  0.336434108527  0.000502533747  0.760372824201  0.760372824201  1.017627212410
  0.337984496124  0.000442228462  0.761708166656  0.761708166656  1.018321004171
  0.339534883721  0.000381406929  0.763017963273  0.763017963273  1.019011206909
  0.341085271318  0.000320075124  0.764299930461  0.764299930461  1.019697812028
  0.342635658915  0.000258239021  0.765552010123  0.765552010123  1.020380810933
  0.344186046512  0.000195904590  0.766772377816  0.766772377816  1.021060195026
  0.345736434109  0.000133077800  0.767959447351  0.767959447351  1.021735955712
  0.347286821705  0.000069764615  0.769111872016  0.769111872016  1.022408084395
  0.348837209302  0.000005970999  0.770228542621  0.770228542621  1.023076572479
  0.350387596899 -0.000058297091  0.771308582656  0.771308582656  1.023741411370
  0.351937984496 -0.000123033697  0.772351340888  0.772351340888  1.024402592471
  0.353488372093 -0.000188232866  0.773356381727  0.773356381727  1.025060107187
  0.355038759690 -0.000253888646  0.774323473757  0.774323473757  1.025713946925
  0.356589147287 -0.000319995090  0.775252576777  0.775252576777  1.026364103088
  0.358139534884 -0.000386546253  0.776143827728  0.776143827728  1.027010567083
  0.359689922481 -0.000453536193  0.776997525843  0.776997525843  1.027653330315
  0.361240310078 -0.000520958971  0.777814117341  0.777814117341  1.028292384190
  0.362790697674 -0.000588808650  0.778594179968  0.778594179968  1.028927720114
  0.364341085271 -0.000657079297  0.779338407622  0.779338407622  1.029559329494
  0.365891472868 -0.000725764983  0.780047595302  0.780047595302  1.030187203737
  0.367441860465 -0.000794859779  0.780722624561  0.780722624561  1.030811334249
  0.368992248062 -0.000864357763  0.781364449614  0.781364449614  1.031431712438
  0.370542635659 -0.000934253012  0.781974084222  0.781974084222  1.032048329711
  0.372093023256 -0.001004539609  0.782552589440  0.782552589440  1.032661177475
  0.373643410853 -0.001075211638  0.783101062284  0.783101062284  1.033270247140
  0.375193798450 -0.001146263188  0.783620625356  0.783620625356  1.033875530113
  0.376744186047 -0.001217688349  0.784112417436  0.784112417436  1.034477017803
  0.378294573643 -0.001289481217  0.784577585039  0.784577585039  1.035074701619
  0.379844961240 -0.001361635888  0.785017274909  0.785017274909  1.035668572970
  0.381395348837 -0.001434146463  0.785432627421  0.785432627421  1.036258623266
  0.382945736434 -0.001507007045  0.785824770856  0.785824770856  1.036844843918
  0.384496124031 -0.001580211741  0.786194816480  0.786194816480  1.037427226335
  0.386046511628 -0.001653754662  0.786543854393  0.786543854393  1.038005761929
  0.387596899225 -0.001727629920  0.786872950073  0.786872950073  1.038580442110
  0.389147286822 -0.001801831631  0.787183141579  0.787183141579  1.039151258291
  0.390697674419 -0.001876353916  0.787475437322  0.787475437322  1.039718201883
  0.392248062016 -0.001951190897  0.787750814387  0.787750814387  1.040281264299
  0.393798449612 -0.002026336699  0.788010217309  0.788010217309  1.040840436952
  0.395348837209 -0.002101785453  0.788254557287  0.788254557287  1.041395711256
  0.396899224806 -0.002177531291  0.788484711763  0.788484711763  1.041947078624
  0.398449612403 -0.002253568349  0.788701524323  0.788701524323  1.042494530472
  0.400000000000 -0.002329890765  0.788905804893  0.788905804893  1.043038058213
  0.401550387597 -0.002406492683  0.789098330164  0.789098330164  1.043577653264
  0.403100775194 -0.002483368247  0.789279844241  0.789279844241  1.044113307041
  0.404651162791 -0.002560511608  0.789451059454  0.789451059454  1.044645010960
  0.406201550388 -0.002637916918  0.789612657326  0.789612657326  1.045172756440
  0.407751937984 -0.002715578332  0.789765289660  0.789765289660  1.045696534897
  0.409302325581 -0.002793490009  0.789909579726  0.789909579726  1.046216337751
  0.410852713178 -0.002871646113  0.790046123523  0.790046123523  1.046732156420
  0.412403100775 -0.002950040809  0.790175491114  0.790175491114  1.047243982326
  0.413953488372 -0.003028668267  0.790298227998  0.790298227998  1.047751806888
  0.415503875969 -0.003107522659  0.790414856523  0.790414856523  1.048255621529
  0.417054263566 -0.003186598162  0.790525877326  0.790525877326  1.048755417670
  0.418604651163 -0.003265888956  0.790631770781  0.790631770781  1.049251186734
  0.420155038760 -0.003345389223  0.790732998466  0.790732998466  1.049742920146
  0.421705426357 -0.003425093151  0.790830004624  0.790830004624  1.050230609331
  0.423255813953 -0.003504994930  0.790923217631  0.790923217631  1.050714245713
  0.424806201550 -0.003585088754  0.791013051452  0.791013051452  1.051193820720
  0.426356589147 -0.003665368819  0.791099907092  0.791099907092  1.051669325779
  0.427906976744 -0.003745829327  0.791184174044  0.791184174044  1.052140752318
  0.429457364341 -0.003826464482  0.791266231722  0.791266231722  1.052608091768
  0.431007751938 -0.003907268491  0.791346450881  0.791346450881  1.053071335559
  0.432558139535 -0.003988235567  0.791425195039  0.791425195039  1.053530475122
  0.434108527132 -0.004069359925  0.791502821882  0.791502821882  1.053985501891
  0.435658914729 -0.004150635782  0.791579684659  0.791579684659  1.054436407299
  0.437209302326 -0.004232057362  0.791656133587  0.791656133587  1.054883182782
  0.438759689922 -0.004313618891  0.791732517229  0.791732517229  1.055325819776
  0.440310077519 -0.004395314597  0.791809183891  0.791809183891  1.055764309720
  0.441860465116 -0.004477138714  0.791886483006  0.791886483006  1.056198644052
  0.443410852713 -0.004559085480  0.791964766523  0.791964766523  1.056628814212
  0.444961240310 -0.004641149134  0.792044390301  0.792044390301  1.057054811644
  0.446511627907 -0.004723323921  0.792125715506  0.792125715506  1.057476627790
  0.448062015504 -0.004805604088  0.792209110014  0.792209110014  1.057894254096
  0.449612403101 -0.004887983889  0.792294949825  0.792294949825  1.058307682007
  0.451162790698 -0.004970457577  0.792383620485  0.792383620485  1.058716902974
  0.452713178295 -0.005053019412  0.792475518513  0.792475518513  1.059121908445
  0.454263565891 -0.005135663657  0.792571052846  0.792571052846  1.059522689872
  0.455813953488 -0.005218384579  0.792670646283  0.792670646283  1.059919238709
  0.457364341085 -0.005301176447  0.792774736946  0.792774736946  1.060311546412
  0.458914728682 -0.005384033537  0.792883779741  0.792883779741  1.060699604438
  0.460465116279 -0.005466950126  0.792998247822  0.792998247822  1.061083404247
  0.462015503876 -0.005549920496  0.793118634057  0.793118634057  1.061462937301
  0.463565891473 -0.005632938933  0.793245452482  0.793245452482  1.061838195063
  0.465116279070 -0.005715999726  0.793379239747  0.793379239747  1.062209168999
  0.466666666667 -0.005799097169  0.793520556541  0.793520556541  1.062575850579
  0.468217054264 -0.005882225559  0.793669988979  0.793669988979  1.062938231272
  0.469767441860 -0.005965379196  0.793828149951  0.793828149951  1.063296302553
  0.471317829457 -0.006048552386  0.793995680417  0.793995680417  1.063650055897
  0.472868217054 -0.006131739437  0.794173250621  0.794173250621  1.063999482783
  0.474418604651 -0.006214934663  0.794361561221  0.794361561221  1.064344574693
  0.475968992248 -0.006298132379  0.794561344302  0.794561344302  1.064685323111
  0.477519379845 -0.006381326907  0.794773364250  0.794773364250  1.065021719525
  0.479069767442 -0.006464512571  0.794998418464  0.794998418464  1.065353755424
  0.480620155039 -0.006547683700  0.795237337874  0.795237337874  1.065681422303
  0.482170542636 -0.006630834625  0.795490987219  0.795490987219  1.066004711658
  0.483720930233 -0.006713959683  0.795760265070  0.795760265070  1.066323614991
  0.485271317829 -0.006797053215  0.796046103534  0.796046103534  1.066638123803
  0.486821705426 -0.006880109565  0.796349467607  0.796349467607  1.066948229605
  0.488372093023 -0.006963123081  0.796671354125  0.796671354125  1.067253923906
  0.489922480620 -0.007046088115  0.797012790259  0.797012790259  1.067555198222
  0.491472868217 -0.007128999024  0.797374831500  0.797374831500  1.067852044072
  0.493023255814 -0.007211850169  0.797758559084  0.797758559084  1.068144452980
  0.494573643411 -0.007294635913  0.798165076788  0.798165076788  1.068432416475
  0.496124031008 -0.007377350625  0.798595507045  0.798595507045  1.068715926087
  0.497674418605 -0.007459988678  0.799050986322  0.799050986322  1.068994973356
  0.499224806202 -0.007542544449  0.799532659701  0.799532659701  1.069269549821
  0.500775193798 -0.007625012317  0.800041674611  0.800041674611  1.069539647031
  0.502325581395 -0.007707386668  0.800579173673  0.800579173673  1.069805256538
  0.503875968992 -0.007789661891  0.801146286605  0.801146286605  1.070066369898
  0.505426356589 -0.007871832379  0.801744121182  0.801744121182  1.070322978675
  0.506976744186 -0.007953892528  0.802373753222  0.802373753222  1.070575074438
  0.508527131783 -0.008035836740  0.803036215607  0.803036215607  1.070822648762
  0.510077519380 -0.008117659421  0.803732486377  0.803732486377  1.071065693227
  0.511627906977 -0.008199354979  0.804463475918  0.804463475918  1.071304199420
  0.513178294574 -0.008280917829  0.805230013362  0.805230013362  1.071538158936
  0.514728682171 -0.008362342388  0.806032832260  0.806032832260  1.071767563374
  0.516279069767 -0.008443623079  0.806872555702  0.806872555702  1.071992404343
  0.517829457364 -0.008524754327  0.807749681044  0.807749681044  1.072212673457
  0.519379844961 -0.008605730563  0.808664564447  0.808664564447  1.072428362340
  0.520930232558 -0.008686546221  0.809617405481  0.809617405481  1.072639462620
  0.522480620155 -0.008767195741  0.810608232073  0.810608232073  1.072845965938
  0.524031007752 -0.008847673564  0.811636886098  0.811636886098  1.073047863939
  0.525581395349 -0.008927974140  0.812703009964  0.812703009964  1.073245148279
  0.527131782946 -0.009008091918  0.813806034539  0.813806034539  1.073437810623
  0.528682170543 -0.009088021354  0.814945168788  0.814945168788  1.073625842644
  0.530232558140 -0.009167756909  0.816119391488  0.816119391488  1.073809236026
  0.531782945736 -0.009247293046  0.817327445388  0.817327445388  1.073987982461
  0.533333333333 -0.009326624235  0.818567834137  0.818567834137  1.074162073655
  0.534883720930 -0.009405744947  0.819838822283  0.819838822283  1.074331501320
  0.536434108527 -0.009484649661  0.821138438586  0.821138438586  1.074496257183
  0.537984496124 -0.009563332856  0.822464482832  0.822464482832  1.074656332980
  0.539534883721 -0.009641789018  0.823814536239  0.823814536239  1.074811720459
  0.541085271318 -0.009720012639  0.825185975479  0.825185975479  1.074962411382
  0.542635658915 -0.009797998210  0.826575990232  0.826575990232  1.075108397522
  0.544186046512 -0.009875740232  0.827981604093  0.827981604093  1.075249670666
  0.545736434109 -0.009953233207  0.829399698548  0.829399698548  1.075386222614
  0.547286821705 -0.010030471642  0.830827039658  0.830827039658  1.075518045179
  0.548837209302 -0.010107450048  0.832260306972  0.832260306972  1.075645130192
  0.550387596899 -0.010184162942  0.833696124152  0.833696124152  1.075767469495
  0.551937984496 -0.010260604843  0.835131090703  0.835131090703  1.075885054948
  0.553488372093 -0.010336770276  0.836561814198  0.836561814198  1.075997878427
  0.555038759690 -0.010412653770  0.837984942331  0.837984942331  1.076105931824
  0.556589147287 -0.010488249858  0.839397194171  0.839397194171  1.076209207048
  0.558139534884 -0.010563553078  0.840795390005  0.840795390005  1.076307696027
  0.559689922481 -0.010638557971  0.842176479200  0.842176479200  1.076401390706
  0.561240310078 -0.010713259084  0.843537565578  0.843537565578  1.076490283051
  0.562790697674 -0.010787650967  0.844875929907  0.844875929907  1.076574365046
  0.564341085271 -0.010861728177  0.846189049156  0.846189049156  1.076653628697
  0.565891472868 -0.010935485271  0.847474612297  0.847474612297  1.076728066030
  0.567441860465 -0.011008916816  0.848730532531  0.848730532531  1.076797669094
  0.568992248062 -0.011082017377  0.849954955881  0.849954955881  1.076862429960
  0.570542635659 -0.011154781529  0.851146266244  0.851146266244  1.076922340724
  0.572093023256 -0.011227203848  0.852303087017  0.852303087017  1.076977393503
  0.573643410853 -0.011299278917  0.853424279528  0.853424279528  1.077027580443
  0.575193798450 -0.011371001321  0.854508938539  0.854508938539  1.077072893714
  0.576744186047 -0.011442365650  0.855556385140  0.855556385140  1.077113325514
  0.578294573643 -0.011513366499  0.856566157380  0.856566157380  1.077148868069
  0.579844961240 -0.011583998468  0.857537999002  0.857537999002  1.077179513632
