             radius   SpeedofSoundError            Expected              Actual 
      0.100000000000     -0.000000001517      0.938638682945      0.938638684461
      0.101234567901     -0.000000001514      0.938721650858      0.938721652372
      0.102469135802     -0.000000001512      0.938804628583      0.938804630095
      0.103703703704     -0.000000001510      0.938887616094      0.938887617604
      0.104938271605     -0.000000001508      0.938970613366      0.938970614874
      0.106172839506     -0.000000001506      0.939053620373      0.939053621879
      0.107407407407     -0.000000001504      0.939136637090      0.939136638594
      0.108641975309     -0.000000001502      0.939219663492      0.939219664994
      0.109876543210     -0.000000001500      0.939302699552      0.939302701052
      0.111111111111     -0.000000001498      0.939385745246      0.939385746744
      0.112345679012     -0.000000001496      0.939468800547      0.939468802043
      0.113580246914     -0.000000001493      0.939551865430      0.939551866924
      0.114814814815     -0.000000001491      0.939634939870      0.939634941362
      0.116049382716     -0.000000001489      0.939718023841      0.939718025330
      0.117283950617     -0.000000001487      0.939801117317      0.939801118804
      0.118518518519     -0.000000001485      0.939884220273      0.939884221758
      0.119753086420     -0.000000001483      0.939967332682      0.939967334165
      0.120987654321     -0.000000001481      0.940050454520      0.940050456001
      0.122222222222     -0.000000001479      0.940133585761      0.940133587240
      0.123456790123     -0.000000001477      0.940216726379      0.940216727856
      0.124691358025     -0.000000001474      0.940299876348      0.940299877823
      0.125925925926     -0.000000001472      0.940383035643      0.940383037116
      0.127160493827     -0.000000001470      0.940466204238      0.940466205708
      0.128395061728     -0.000000001468      0.940549382107      0.940549383575
      0.129629629630     -0.000000001466      0.940632569225      0.940632570691
      0.130864197531     -0.000000001464      0.940715765565      0.940715767029
      0.132098765432     -0.000000001462      0.940798971103      0.940798972565
      0.133333333333     -0.000000001460      0.940882185811      0.940882187271
      0.134567901235     -0.000000001458      0.940965409666      0.940965411123
      0.135802469136     -0.000000001455      0.941048642640      0.941048644095
      0.137037037037     -0.000000001453      0.941131884707      0.941131886161
      0.138271604938     -0.000000001451      0.941215135843      0.941215137295
      0.139506172840     -0.000000001449      0.941298396022      0.941298397471
      0.140740740741     -0.000000001447      0.941381665216      0.941381666663
      0.141975308642     -0.000000001445      0.941464943401      0.941464944846
      0.143209876543     -0.000000001443      0.941548230551      0.941548231994
      0.144444444444     -0.000000001441      0.941631526640      0.941631528081
      0.145679012346     -0.000000001439      0.941714831642      0.941714833081
      0.146913580247     -0.000000001436      0.941798145531      0.941798146968
      0.148148148148     -0.000000001434      0.941881468281      0.941881469716
      0.149382716049     -0.000000001432      0.941964799867      0.941964801299
      0.150617283951     -0.000000001430      0.942048140262      0.942048141692
      0.151851851852     -0.000000001428      0.942131489440      0.942131490868
      0.153086419753     -0.000000001426      0.942214847376      0.942214848802
      0.154320987654     -0.000000001424      0.942298214043      0.942298215467
      0.155555555556     -0.000000001422      0.942381589416      0.942381590838
      0.156790123457     -0.000000001419      0.942464973469      0.942464974888
      0.158024691358     -0.000000001417      0.942548366175      0.942548367592
      0.159259259259     -0.000000001415      0.942631767509      0.942631768924
      0.160493827160     -0.000000001413      0.942715177444      0.942715178857
      0.161728395062     -0.000000001411      0.942798595955      0.942798597366
      0.162962962963     -0.000000001409      0.942882023015      0.942882024424
      0.164197530864     -0.000000001407      0.942965458600      0.942965460006
      0.165432098765     -0.000000001405      0.943048902681      0.943048904086
      0.166666666667     -0.000000001402      0.943132355234      0.943132356636
      0.167901234568     -0.000000001400      0.943215816232      0.943215817632
      0.169135802469     -0.000000001398      0.943299285650      0.943299287048
      0.170370370370     -0.000000001396      0.943382763460      0.943382764856
      0.171604938272     -0.000000001394      0.943466249638      0.943466251032
      0.172839506173     -0.000000001392      0.943549744156      0.943549745548
      0.174074074074     -0.000000001390      0.943633246990      0.943633248379
      0.175308641975     -0.000000001388      0.943716758112      0.943716759499
      0.176543209877     -0.000000001385      0.943800277496      0.943800278882
      0.177777777778     -0.000000001383      0.943883805117      0.943883806500
      0.179012345679     -0.000000001381      0.943967340948      0.943967342329
      0.180246913580     -0.000000001379      0.944050884963      0.944050886342
      0.181481481481     -0.000000001377      0.944134437136      0.944134438513
      0.182716049383     -0.000000001375      0.944217997440      0.944217998815
      0.183950617284     -0.000000001373      0.944301565850      0.944301567223
      0.185185185185     -0.000000001371      0.944385142339      0.944385143710
      0.186419753086     -0.000000001368      0.944468726881      0.944468728249
      0.187654320988     -0.000000001366      0.944552319450      0.944552320816
      0.188888888889     -0.000000001364      0.944635920019      0.944635921383
      0.190123456790     -0.000000001362      0.944719528562      0.944719529924
      0.191358024691     -0.000000001360      0.944803145053      0.944803146413
      0.192592592593     -0.000000001358      0.944886769466      0.944886770824
      0.193827160494     -0.000000001356      0.944970401775      0.944970403130
      0.195061728395     -0.000000001353      0.945054041952      0.945054043305
      0.196296296296     -0.000000001351      0.945137689972      0.945137691323
      0.197530864198     -0.000000001349      0.945221345808      0.945221347158
      0.198765432099     -0.000000001347      0.945305009435      0.945305010782
      0.200000000000     -0.000000001345      0.945388680825      0.945388682170
      0.201234567901     -0.000000001343      0.945472359953      0.945472361296
      0.202469135802     -0.000000001341      0.945556046792      0.945556048132
      0.203703703704     -0.000000001338      0.945639741315      0.945639742654
      0.204938271605     -0.000000001336      0.945723443497      0.945723444833
      0.206172839506     -0.000000001334      0.945807153311      0.945807154645
      0.207407407407     -0.000000001332      0.945890870730      0.945890872062
      0.208641975309     -0.000000001330      0.945974595728      0.945974597058
      0.209876543210     -0.000000001328      0.946058328279      0.946058329607
      0.211111111111     -0.000000001326      0.946142068356      0.946142069682
      0.212345679012     -0.000000001323      0.946225815933      0.946225817257
      0.213580246914     -0.000000001321      0.946309570984      0.946309572305
      0.214814814815     -0.000000001319      0.946393333481      0.946393334800
      0.216049382716     -0.000000001317      0.946477103398      0.946477104716
      0.217283950617     -0.000000001315      0.946560880710      0.946560882025
      0.218518518519     -0.000000001313      0.946644665389      0.946644666702
      0.219753086420     -0.000000001311      0.946728457410      0.946728458720
      0.220987654321     -0.000000001308      0.946812256744      0.946812258053
      0.222222222222     -0.000000001306      0.946896063367      0.946896064673
      0.223456790123     -0.000000001304      0.946979877251      0.946979878555
      0.224691358025     -0.000000001302      0.947063698370      0.947063699672
      0.225925925926     -0.000000001300      0.947147526697      0.947147527997
      0.227160493827     -0.000000001298      0.947231362207      0.947231363504
      0.228395061728     -0.000000001296      0.947315204871      0.947315206167
      0.229629629630     -0.000000001293      0.947399054664      0.947399055958
      0.230864197531     -0.000000001291      0.947482911560      0.947482912851
      0.232098765432     -0.000000001289      0.947566775531      0.947566776820
      0.233333333333     -0.000000001287      0.947650646551      0.947650647838
      0.234567901235     -0.000000001285      0.947734524593      0.947734525878
      0.235802469136     -0.000000001283      0.947818409631      0.947818410913
      0.237037037037     -0.000000001281      0.947902301638      0.947902302918
      0.238271604938     -0.000000001278      0.947986200588      0.947986201866
      0.239506172840     -0.000000001276      0.948070106453      0.948070107729
      0.240740740741     -0.000000001274      0.948154019208      0.948154020482
      0.241975308642     -0.000000001272      0.948237938825      0.948237940097
      0.243209876543     -0.000000001270      0.948321865278      0.948321866548
      0.244444444444     -0.000000001268      0.948405798540      0.948405799808
      0.245679012346     -0.000000001265      0.948489738585      0.948489739851
      0.246913580247     -0.000000001263      0.948573685386      0.948573686649
      0.248148148148     -0.000000001261      0.948657638916      0.948657640177
      0.249382716049     -0.000000001259      0.948741599148      0.948741600407
      0.250617283951     -0.000000001257      0.948825566056      0.948825567313
      0.251851851852     -0.000000001255      0.948909539613      0.948909540868
      0.253086419753     -0.000000001253      0.948993519792      0.948993521045
      0.254320987654     -0.000000001250      0.949077506567      0.949077507818
      0.255555555556     -0.000000001248      0.949161499911      0.949161501159
      0.256790123457     -0.000000001246      0.949245499796      0.949245501043
      0.258024691358     -0.000000001244      0.949329506197      0.949329507441
      0.259259259259     -0.000000001242      0.949413519087      0.949413520328
      0.260493827160     -0.000000001240      0.949497538438      0.949497539677
      0.261728395062     -0.000000001237      0.949581564224      0.949581565461
      0.262962962963     -0.000000001235      0.949665596418      0.949665597653
      0.264197530864     -0.000000001233      0.949749634993      0.949749636226
      0.265432098765     -0.000000001231      0.949833679923      0.949833681154
      0.266666666667     -0.000000001229      0.949917731180      0.949917732409
      0.267901234568     -0.000000001227      0.950001788738      0.950001789965
      0.269135802469     -0.000000001225      0.950085852571      0.950085853795
      0.270370370370     -0.000000001222      0.950169922650      0.950169923872
      0.271604938272     -0.000000001220      0.950253998950      0.950254000170
      0.272839506173     -0.000000001218      0.950338081443      0.950338082661
      0.274074074074     -0.000000001216      0.950422170102      0.950422171318
      0.275308641975     -0.000000001214      0.950506264901      0.950506266115
      0.276543209877     -0.000000001212      0.950590365814      0.950590367025
      0.277777777778     -0.000000001209      0.950674472811      0.950674474021
      0.279012345679     -0.000000001207      0.950758585868      0.950758587076
      0.280246913580     -0.000000001205      0.950842704957      0.950842706162
      0.281481481481     -0.000000001203      0.950926830051      0.950926831254
      0.282716049383     -0.000000001201      0.951010961124      0.951010962325
      0.283950617284     -0.000000001199      0.951095098147      0.951095099346
      0.285185185185     -0.000000001196      0.951179241095      0.951179242292
      0.286419753086     -0.000000001194      0.951263389941      0.951263391135
      0.287654320988     -0.000000001192      0.951347544657      0.951347545849
      0.288888888889     -0.000000001190      0.951431705216      0.951431706406
      0.290123456790     -0.000000001188      0.951515871592      0.951515872780
      0.291358024691     -0.000000001186      0.951600043757      0.951600044943
      0.292592592593     -0.000000001183      0.951684221685      0.951684222869
      0.293827160494     -0.000000001181      0.951768405349      0.951768406530
      0.295061728395     -0.000000001179      0.951852594721      0.951852595900
      0.296296296296     -0.000000001177      0.951936789774      0.951936790951
      0.297530864198     -0.000000001175      0.952020990482      0.952020991657
      0.298765432099     -0.000000001173      0.952105196818      0.952105197991
      0.300000000000     -0.000000001170      0.952189408754      0.952189409925
      0.301234567901     -0.000000001168      0.952273626264      0.952273627432
      0.302469135802     -0.000000001166      0.952357849320      0.952357850486
      0.303703703704     -0.000000001164      0.952442077895      0.952442079059
      0.304938271605     -0.000000001162      0.952526311963      0.952526313124
      0.306172839506     -0.000000001160      0.952610551495      0.952610552655
      0.307407407407     -0.000000001158      0.952694796466      0.952694797624
      0.308641975309     -0.000000001155      0.952779046848      0.952779048004
      0.309876543210     -0.000000001153      0.952863302614      0.952863303768
      0.311111111111     -0.000000001151      0.952947563737      0.952947564888
      0.312345679012     -0.000000001149      0.953031830190      0.953031831339
      0.313580246914     -0.000000001147      0.953116101946      0.953116103092
      0.314814814815     -0.000000001145      0.953200378977      0.953200380121
      0.316049382716     -0.000000001142      0.953284661256      0.953284662399
      0.317283950617     -0.000000001140      0.953368948757      0.953368949897
      0.318518518519     -0.000000001138      0.953453241452      0.953453242590
      0.319753086420     -0.000000001136      0.953537539314      0.953537540450
      0.320987654321     -0.000000001134      0.953621842316      0.953621843450
      0.322222222222     -0.000000001132      0.953706150431      0.953706151563
      0.323456790123     -0.000000001129      0.953790463632      0.953790464761
      0.324691358025     -0.000000001127      0.953874781890      0.953874783018
      0.325925925926     -0.000000001125      0.953959105181      0.953959106306
      0.327160493827     -0.000000001123      0.954043433475      0.954043434598
      0.328395061728     -0.000000001121      0.954127766746      0.954127767867
      0.329629629630     -0.000000001119      0.954212104967      0.954212106085
      0.330864197531     -0.000000001116      0.954296448110      0.954296449227
      0.332098765432     -0.000000001114      0.954380796149      0.954380797263
      0.333333333333     -0.000000001112      0.954465149056      0.954465150168
      0.334567901235     -0.000000001110      0.954549506803      0.954549507913
      0.335802469136     -0.000000001108      0.954633869365      0.954633870472
      0.337037037037     -0.000000001106      0.954718236713      0.954718237818
      0.338271604938     -0.000000001103      0.954802608820      0.954802609923
      0.339506172840     -0.000000001101      0.954886985659      0.954886986760
      0.340740740741     -0.000000001099      0.954971367202      0.954971368301
      0.341975308642     -0.000000001097      0.955055753423      0.955055754520
      0.343209876543     -0.000000001095      0.955140144295      0.955140145389
      0.344444444444     -0.000000001093      0.955224539789      0.955224540882
      0.345679012346     -0.000000001090      0.955308939879      0.955308940969
      0.346913580247     -0.000000001088      0.955393344537      0.955393345625
      0.348148148148     -0.000000001086      0.955477753737      0.955477754823
      0.349382716049     -0.000000001084      0.955562167450      0.955562168534
      0.350617283951     -0.000000001082      0.955646585650      0.955646586731
      0.351851851852     -0.000000001080      0.955731008309      0.955731009388
      0.353086419753     -0.000000001077      0.955815435400      0.955815436477
      0.354320987654     -0.000000001075      0.955899866895      0.955899867971
      0.355555555556     -0.000000001073      0.955984302768      0.955984303841
      0.356790123457     -0.000000001071      0.956068742991      0.956068744062
      0.358024691358     -0.000000001069      0.956153187536      0.956153188605
      0.359259259259     -0.000000001067      0.956237636377      0.956237637444
      0.360493827160     -0.000000001064      0.956322089486      0.956322090550
      0.361728395062     -0.000000001062      0.956406546835      0.956406547898
      0.362962962963     -0.000000001060      0.956491008398      0.956491009458
      0.364197530864     -0.000000001058      0.956575474147      0.956575475204
      0.365432098765     -0.000000001056      0.956659944054      0.956659945109
      0.366666666667     -0.000000001053      0.956744418092      0.956744419146
      0.367901234568     -0.000000001051      0.956828896234      0.956828897285
      0.369135802469     -0.000000001049      0.956913378453      0.956913379502
      0.370370370370     -0.000000001047      0.956997864720      0.956997865767
      0.371604938272     -0.000000001045      0.957082355010      0.957082356055
      0.372839506173     -0.000000001043      0.957166849293      0.957166850336
      0.374074074074     -0.000000001040      0.957251347544      0.957251348584
      0.375308641975     -0.000000001038      0.957335849734      0.957335850772
      0.376543209877     -0.000000001036      0.957420355836      0.957420356872
      0.377777777778     -0.000000001034      0.957504865823      0.957504866857
      0.379012345679     -0.000000001032      0.957589379667      0.957589380698
      0.380246913580     -0.000000001030      0.957673897340      0.957673898370
      0.381481481481     -0.000000001027      0.957758418817      0.957758419844
      0.382716049383     -0.000000001025      0.957842944068      0.957842945093
      0.383950617284     -0.000000001023      0.957927473066      0.957927474090
      0.385185185185     -0.000000001021      0.958012005785      0.958012006806
      0.386419753086     -0.000000001019      0.958096542197      0.958096543215
      0.387654320988     -0.000000001017      0.958181082273      0.958181083290
      0.388888888889     -0.000000001014      0.958265625988      0.958265627002
      0.390123456790     -0.000000001012      0.958350173312      0.958350174325
      0.391358024691     -0.000000001010      0.958434724220      0.958434725230
      0.392592592593     -0.000000001008      0.958519278683      0.958519279690
      0.393827160494     -0.000000001006      0.958603836673      0.958603837679
      0.395061728395     -0.000000001004      0.958688398164      0.958688399168
      0.396296296296     -0.000000001001      0.958772963128      0.958772964130
      0.397530864198     -0.000000000999      0.958857531537      0.958857532537
      0.398765432099     -0.000000000997      0.958942103365      0.958942104362
      0.400000000000     -0.000000000995      0.959026678582      0.959026679577
      0.401234567901     -0.000000000993      0.959111257163      0.959111258156
