             radius   SpeedofSoundError            Expected              Actual 
      0.100000000000     -0.000000000137      0.994376265207      0.994376265344
      0.111688311688     -0.000000000135      0.994449290198      0.994449290333
      0.123376623377     -0.000000000133      0.994522316019      0.994522316152
      0.135064935065     -0.000000000131      0.994595342649      0.994595342781
      0.146753246753     -0.000000000130      0.994668370066      0.994668370196
      0.158441558442     -0.000000000128      0.994741398247      0.994741398375
      0.170129870130     -0.000000000126      0.994814427171      0.994814427297
      0.181818181818     -0.000000000124      0.994887456815      0.994887456939
      0.193506493506     -0.000000000122      0.994960487157      0.994960487279
      0.205194805195     -0.000000000121      0.995033518174      0.995033518295
      0.216883116883     -0.000000000119      0.995106549846      0.995106549965
      0.228571428571     -0.000000000117      0.995179582149      0.995179582266
      0.240259740260     -0.000000000115      0.995252615062      0.995252615177
      0.251948051948     -0.000000000114      0.995325648561      0.995325648675
      0.263636363636     -0.000000000112      0.995398682626      0.995398682738
      0.275324675325     -0.000000000110      0.995471717234      0.995471717344
      0.287012987013     -0.000000000108      0.995544752363      0.995544752471
      0.298701298701     -0.000000000106      0.995617787990      0.995617788097
      0.310389610390     -0.000000000105      0.995690824094      0.995690824199
      0.322077922078     -0.000000000103      0.995763860652      0.995763860755
      0.333766233766     -0.000000000101      0.995836897643      0.995836897744
      0.345454545455     -0.000000000099      0.995909935043      0.995909935143
      0.357142857143     -0.000000000098      0.995982972832      0.995982972929
      0.368831168831     -0.000000000096      0.996056010985      0.996056011081
      0.380519480519     -0.000000000094      0.996129049483      0.996129049577
      0.392207792208     -0.000000000092      0.996202088302      0.996202088394
      0.403896103896     -0.000000000090      0.996275127420      0.996275127510
      0.415584415584     -0.000000000089      0.996348166815      0.996348166904
      0.427272727273     -0.000000000087      0.996421206465      0.996421206552
      0.438961038961     -0.000000000085      0.996494246348      0.996494246433
      0.450649350649     -0.000000000083      0.996567286441      0.996567286525
      0.462337662338     -0.000000000082      0.996640326723      0.996640326804
      0.474025974026     -0.000000000080      0.996713367171      0.996713367251
      0.485714285714     -0.000000000078      0.996786407763      0.996786407841
      0.497402597403     -0.000000000076      0.996859448477      0.996859448553
      0.509090909091     -0.000000000074      0.996932489290      0.996932489365
      0.520779220779     -0.000000000073      0.997005530182      0.997005530254
      0.532467532468     -0.000000000071      0.997078571128      0.997078571199
      0.544155844156     -0.000000000069      0.997151612108      0.997151612177
      0.555844155844     -0.000000000067      0.997224653099      0.997224653167
      0.567532467532     -0.000000000066      0.997297694079      0.997297694145
      0.579220779221     -0.000000000064      0.997370735026      0.997370735090
      0.590909090909     -0.000000000062      0.997443775917      0.997443775979
      0.602597402597     -0.000000000060      0.997516816731      0.997516816791
      0.614285714286     -0.000000000058      0.997589857445      0.997589857503
      0.625974025974     -0.000000000057      0.997662898037      0.997662898093
      0.637662337662     -0.000000000055      0.997735938485      0.997735938539
      0.649350649351     -0.000000000053      0.997808978766      0.997808978819
      0.661038961039     -0.000000000051      0.997882018860      0.997882018911
      0.672727272727     -0.000000000050      0.997955058742      0.997955058792
      0.684415584416     -0.000000000048      0.998028098392      0.998028098440
      0.696103896104     -0.000000000046      0.998101137788      0.998101137834
      0.707792207792     -0.000000000044      0.998174176906      0.998174176950
      0.719480519481     -0.000000000042      0.998247215724      0.998247215767
      0.731168831169     -0.000000000041      0.998320254222      0.998320254263
      0.742857142857     -0.000000000039      0.998393292376      0.998393292415
      0.754545454545     -0.000000000037      0.998466330164      0.998466330201
      0.766233766234     -0.000000000035      0.998539367565      0.998539367600
      0.777922077922     -0.000000000034      0.998612404555      0.998612404589
      0.789610389610     -0.000000000032      0.998685441113      0.998685441145
      0.801298701299     -0.000000000030      0.998758477217      0.998758477247
      0.812987012987     -0.000000000028      0.998831512845      0.998831512873
      0.824675324675     -0.000000000027      0.998904547973      0.998904548000
      0.836363636364     -0.000000000025      0.998977582581      0.998977582606
      0.848051948052     -0.000000000023      0.999050616646      0.999050616669
      0.859740259740     -0.000000000021      0.999123650146      0.999123650167
      0.871428571429     -0.000000000019      0.999196683058      0.999196683078
      0.883116883117     -0.000000000018      0.999269715362      0.999269715379
      0.894805194805     -0.000000000016      0.999342747033      0.999342747049
      0.906493506494     -0.000000000014      0.999415778051      0.999415778065
      0.918181818182     -0.000000000012      0.999488808393      0.999488808405
      0.929870129870     -0.000000000011      0.999561838037      0.999561838047
      0.941558441558     -0.000000000009      0.999634866960      0.999634866969
      0.953246753247     -0.000000000007      0.999707895141      0.999707895148
      0.964935064935     -0.000000000005      0.999780922558      0.999780922563
      0.976623376623     -0.000000000004      0.999853949188      0.999853949192
      0.988311688312     -0.000000000002      0.999926975010      0.999926975011
      1.000000000000     -0.000000000000      1.000000000000      1.000000000000
