             radius   SpeedofSoundError            Expected              Actual 
      0.100000000000     -0.000000787079      0.938638682945      0.938639470024
      0.128125000000     -0.000000762204      0.940531186157      0.940531948361
      0.156250000000     -0.000000737175      0.942428491879      0.942429229054
      0.184375000000     -0.000000712009      0.944330294358      0.944331006368
      0.212500000000     -0.000000686724      0.946236284906      0.946236971630
      0.240625000000     -0.000000661336      0.948146152095      0.948146813431
      0.268750000000     -0.000000635862      0.950059581951      0.950060217813
      0.296875000000     -0.000000610319      0.951976258154      0.951976868473
      0.325000000000     -0.000000584726      0.953895862242      0.953896446968
      0.353125000000     -0.000000559098      0.955818073817      0.955818632916
      0.381250000000     -0.000000533454      0.957742570751      0.957743104206
      0.409375000000     -0.000000507812      0.959669029399      0.959669537211
      0.437500000000     -0.000000482189      0.961597124810      0.961597606998
      0.465625000000     -0.000000456602      0.963526530943      0.963526987545
      0.493750000000     -0.000000431069      0.965456920885      0.965457351954
      0.521875000000     -0.000000405608      0.967387967065      0.967388372673
      0.550000000000     -0.000000380237      0.969319341472      0.969319721709
      0.578125000000     -0.000000354971      0.971250715880      0.971251070851
      0.606250000000     -0.000000329829      0.973181762060      0.973182091889
      0.634375000000     -0.000000304829      0.975112152002      0.975112456830
      0.662500000000     -0.000000279985      0.977041558135      0.977041838121
      0.690625000000     -0.000000255317      0.978969653546      0.978969908863
      0.718750000000     -0.000000230839      0.980896112193      0.980896343032
      0.746875000000     -0.000000206568      0.982820609127      0.982820815696
      0.775000000000     -0.000000182521      0.984742820703      0.984743003223
      0.803125000000     -0.000000158712      0.986662424791      0.986662583503
      0.831250000000     -0.000000135158      0.988579100994      0.988579236153
      0.859375000000     -0.000000111874      0.990492530850      0.990492642724
      0.887500000000     -0.000000088874      0.992402398039      0.992402486912
      0.915625000000     -0.000000066173      0.994308388587      0.994308454759
      0.943750000000     -0.000000043784      0.996210191066      0.996210234850
      0.971875000000     -0.000000021722      0.998107496788      0.998107518510
      1.000000000000     -0.000000000000      1.000000000000      1.000000000000
