             radius   SpeedofSoundError            Expected              Actual 
      0.100000000000     -0.000000000100      0.994376265207      0.994376265308
      0.110000000000     -0.000000000099      0.994438742092      0.994438742191
      0.120000000000     -0.000000000098      0.994501219587      0.994501219685
      0.130000000000     -0.000000000097      0.994563697678      0.994563697775
      0.140000000000     -0.000000000096      0.994626176353      0.994626176448
      0.150000000000     -0.000000000095      0.994688655596      0.994688655691
      0.160000000000     -0.000000000093      0.994751135395      0.994751135488
      0.170000000000     -0.000000000092      0.994813615735      0.994813615827
      0.180000000000     -0.000000000091      0.994876096602      0.994876096693
      0.190000000000     -0.000000000090      0.994938577982      0.994938578072
      0.200000000000     -0.000000000089      0.995001059862      0.995001059951
      0.210000000000     -0.000000000088      0.995063542228      0.995063542316
      0.220000000000     -0.000000000087      0.995126025066      0.995126025153
      0.230000000000     -0.000000000086      0.995188508362      0.995188508447
      0.240000000000     -0.000000000084      0.995250992102      0.995250992186
      0.250000000000     -0.000000000083      0.995313476272      0.995313476355
      0.260000000000     -0.000000000082      0.995375960858      0.995375960940
      0.270000000000     -0.000000000081      0.995438445847      0.995438445928
      0.280000000000     -0.000000000080      0.995500931224      0.995500931304
      0.290000000000     -0.000000000079      0.995563416977      0.995563417056
      0.300000000000     -0.000000000078      0.995625903090      0.995625903168
      0.310000000000     -0.000000000077      0.995688389550      0.995688389627
      0.320000000000     -0.000000000076      0.995750876343      0.995750876419
      0.330000000000     -0.000000000074      0.995813363456      0.995813363530
      0.340000000000     -0.000000000073      0.995875850873      0.995875850947
      0.350000000000     -0.000000000072      0.995938338583      0.995938338655
      0.360000000000     -0.000000000071      0.996000826570      0.996000826641
      0.370000000000     -0.000000000070      0.996063314820      0.996063314890
      0.380000000000     -0.000000000069      0.996125803321      0.996125803389
      0.390000000000     -0.000000000068      0.996188292057      0.996188292125
      0.400000000000     -0.000000000067      0.996250781015      0.996250781082
      0.410000000000     -0.000000000066      0.996313270182      0.996313270248
      0.420000000000     -0.000000000064      0.996375759543      0.996375759607
      0.430000000000     -0.000000000063      0.996438249084      0.996438249148
      0.440000000000     -0.000000000062      0.996500738792      0.996500738855
      0.450000000000     -0.000000000061      0.996563228653      0.996563228714
      0.460000000000     -0.000000000060      0.996625718653      0.996625718713
      0.470000000000     -0.000000000059      0.996688208777      0.996688208836
      0.480000000000     -0.000000000058      0.996750699012      0.996750699070
      0.490000000000     -0.000000000057      0.996813189345      0.996813189402
      0.500000000000     -0.000000000055      0.996875679761      0.996875679816
      0.510000000000     -0.000000000054      0.996938170246      0.996938170301
      0.520000000000     -0.000000000053      0.997000660787      0.997000660840
      0.530000000000     -0.000000000052      0.997063151369      0.997063151422
      0.540000000000     -0.000000000051      0.997125641980      0.997125642031
      0.550000000000     -0.000000000050      0.997188132604      0.997188132654
      0.560000000000     -0.000000000049      0.997250623228      0.997250623277
      0.570000000000     -0.000000000048      0.997313113838      0.997313113886
      0.580000000000     -0.000000000047      0.997375604421      0.997375604467
      0.590000000000     -0.000000000045      0.997438094961      0.997438095007
      0.600000000000     -0.000000000044      0.997500585447      0.997500585491
      0.610000000000     -0.000000000043      0.997563075862      0.997563075906
      0.620000000000     -0.000000000042      0.997625566195      0.997625566237
      0.630000000000     -0.000000000041      0.997688056431      0.997688056472
      0.640000000000     -0.000000000040      0.997750546555      0.997750546595
      0.650000000000     -0.000000000039      0.997813036554      0.997813036593
      0.660000000000     -0.000000000038      0.997875526415      0.997875526453
      0.670000000000     -0.000000000037      0.997938016123      0.997938016160
      0.680000000000     -0.000000000035      0.998000505664      0.998000505700
      0.690000000000     -0.000000000034      0.998062995025      0.998062995060
      0.700000000000     -0.000000000033      0.998125484192      0.998125484225
      0.710000000000     -0.000000000032      0.998187973151      0.998187973183
      0.720000000000     -0.000000000031      0.998250461887      0.998250461918
      0.730000000000     -0.000000000030      0.998312950387      0.998312950417
      0.740000000000     -0.000000000029      0.998375438638      0.998375438667
      0.750000000000     -0.000000000028      0.998437926625      0.998437926652
      0.760000000000     -0.000000000027      0.998500414334      0.998500414361
      0.770000000000     -0.000000000025      0.998562901752      0.998562901777
      0.780000000000     -0.000000000024      0.998625388864      0.998625388889
      0.790000000000     -0.000000000023      0.998687875658      0.998687875681
      0.800000000000     -0.000000000022      0.998750362118      0.998750362140
      0.810000000000     -0.000000000021      0.998812848231      0.998812848252
      0.820000000000     -0.000000000020      0.998875333983      0.998875334003
      0.830000000000     -0.000000000019      0.998937819361      0.998937819379
      0.840000000000     -0.000000000018      0.999000304349      0.999000304367
      0.850000000000     -0.000000000017      0.999062788936      0.999062788953
      0.860000000000     -0.000000000015      0.999125273106      0.999125273121
      0.870000000000     -0.000000000014      0.999187756846      0.999187756860
      0.880000000000     -0.000000000013      0.999250240142      0.999250240155
      0.890000000000     -0.000000000012      0.999312722979      0.999312722991
      0.900000000000     -0.000000000011      0.999375205345      0.999375205356
      0.910000000000     -0.000000000010      0.999437687225      0.999437687235
      0.920000000000     -0.000000000009      0.999500168606      0.999500168615
      0.930000000000     -0.000000000008      0.999562649473      0.999562649481
      0.940000000000     -0.000000000007      0.999625129813      0.999625129819
      0.950000000000     -0.000000000006      0.999687609611      0.999687609617
      0.960000000000     -0.000000000004      0.999750088855      0.999750088859
      0.970000000000     -0.000000000003      0.999812567529      0.999812567532
      0.980000000000     -0.000000000002      0.999875045621      0.999875045623
      0.990000000000     -0.000000000001      0.999937523116      0.999937523117
      1.000000000000     -0.000000000000      1.000000000000      1.000000000000
