             radius   SpeedofSoundError            Expected              Actual 
      0.100000000000     -0.000000000428      0.996251124595      0.996251125023
      0.125000000000     -0.000000000416      0.996355200145      0.996355200561
      0.150000000000     -0.000000000405      0.996459280753      0.996459281157
      0.175000000000     -0.000000000393      0.996563366274      0.996563366667
      0.200000000000     -0.000000000381      0.996667456565      0.996667456946
      0.225000000000     -0.000000000369      0.996771551482      0.996771551850
      0.250000000000     -0.000000000357      0.996875650879      0.996875651236
      0.275000000000     -0.000000000345      0.996979754613      0.996979754958
      0.300000000000     -0.000000000333      0.997083862539      0.997083862872
      0.325000000000     -0.000000000321      0.997187974513      0.997187974834
      0.350000000000     -0.000000000309      0.997292090391      0.997292090700
      0.375000000000     -0.000000000297      0.997396210028      0.997396210325
      0.400000000000     -0.000000000285      0.997500333280      0.997500333565
      0.425000000000     -0.000000000273      0.997604460002      0.997604460276
      0.450000000000     -0.000000000262      0.997708590050      0.997708590312
      0.475000000000     -0.000000000250      0.997812723280      0.997812723530
      0.500000000000     -0.000000000238      0.997916859546      0.997916859784
      0.525000000000     -0.000000000226      0.998020998705      0.998020998931
      0.550000000000     -0.000000000214      0.998125140612      0.998125140826
      0.575000000000     -0.000000000202      0.998229285123      0.998229285325
      0.600000000000     -0.000000000190      0.998333432092      0.998333432282
      0.625000000000     -0.000000000178      0.998437581375      0.998437581553
      0.650000000000     -0.000000000166      0.998541732828      0.998541732995
      0.675000000000     -0.000000000154      0.998645886306      0.998645886461
      0.700000000000     -0.000000000143      0.998750041665      0.998750041808
      0.725000000000     -0.000000000131      0.998854198760      0.998854198890
      0.750000000000     -0.000000000119      0.998958357445      0.998958357564
      0.775000000000     -0.000000000107      0.999062517578      0.999062517685
      0.800000000000     -0.000000000095      0.999166679012      0.999166679107
      0.825000000000     -0.000000000083      0.999270841604      0.999270841687
      0.850000000000     -0.000000000071      0.999375005208      0.999375005280
      0.875000000000     -0.000000000059      0.999479169681      0.999479169740
      0.900000000000     -0.000000000047      0.999583334877      0.999583334924
      0.925000000000     -0.000000000036      0.999687500651      0.999687500687
      0.950000000000     -0.000000000024      0.999791666860      0.999791666883
      0.975000000000     -0.000000000012      0.999895833357      0.999895833369
      1.000000000000      0.000000000000      1.000000000000      1.000000000000
