             radius   SpeedofSoundError            Expected              Actual 
      0.100000000000     -0.000000013649      0.938638682945      0.938638696594
      0.103703703704     -0.000000013592      0.938887616094      0.938887629686
      0.107407407407     -0.000000013536      0.939136637090      0.939136650626
      0.111111111111     -0.000000013479      0.939385745246      0.939385758725
      0.114814814815     -0.000000013422      0.939634939870      0.939634953292
      0.118518518519     -0.000000013365      0.939884220273      0.939884233638
      0.122222222222     -0.000000013308      0.940133585761      0.940133599070
      0.125925925926     -0.000000013251      0.940383035643      0.940383048895
      0.129629629630     -0.000000013194      0.940632569225      0.940632582419
      0.133333333333     -0.000000013137      0.940882185811      0.940882198949
      0.137037037037     -0.000000013080      0.941131884707      0.941131897788
      0.140740740741     -0.000000013023      0.941381665216      0.941381678239
      0.144444444444     -0.000000012966      0.941631526640      0.941631539606
      0.148148148148     -0.000000012909      0.941881468281      0.941881481190
      0.151851851852     -0.000000012852      0.942131489440      0.942131502292
      0.155555555556     -0.000000012794      0.942381589416      0.942381602211
      0.159259259259     -0.000000012737      0.942631767509      0.942631780246
      0.162962962963     -0.000000012680      0.942882023015      0.942882035695
      0.166666666667     -0.000000012622      0.943132355234      0.943132367856
      0.170370370370     -0.000000012565      0.943382763460      0.943382776025
      0.174074074074     -0.000000012507      0.943633246990      0.943633259497
      0.177777777778     -0.000000012450      0.943883805117      0.943883817567
      0.181481481481     -0.000000012392      0.944134437136      0.944134449528
      0.185185185185     -0.000000012335      0.944385142339      0.944385154674
      0.188888888889     -0.000000012277      0.944635920019      0.944635932296
      0.192592592593     -0.000000012219      0.944886769466      0.944886781686
      0.196296296296     -0.000000012162      0.945137689972      0.945137702134
      0.200000000000     -0.000000012104      0.945388680825      0.945388692929
      0.203703703704     -0.000000012046      0.945639741315      0.945639753361
      0.207407407407     -0.000000011988      0.945890870730      0.945890882718
      0.211111111111     -0.000000011930      0.946142068356      0.946142080287
      0.214814814815     -0.000000011873      0.946393333481      0.946393345353
      0.218518518519     -0.000000011815      0.946644665389      0.946644677204
      0.222222222222     -0.000000011757      0.946896063367      0.946896075124
      0.225925925926     -0.000000011699      0.947147526697      0.947147538396
      0.229629629630     -0.000000011641      0.947399054664      0.947399066305
      0.233333333333     -0.000000011583      0.947650646551      0.947650658133
      0.237037037037     -0.000000011525      0.947902301638      0.947902313163
      0.240740740741     -0.000000011467      0.948154019208      0.948154030674
      0.244444444444     -0.000000011409      0.948405798540      0.948405809949
      0.248148148148     -0.000000011350      0.948657638916      0.948657650266
      0.251851851852     -0.000000011292      0.948909539613      0.948909550905
      0.255555555556     -0.000000011234      0.949161499911      0.949161511145
      0.259259259259     -0.000000011176      0.949413519087      0.949413530263
      0.262962962963     -0.000000011118      0.949665596418      0.949665607535
      0.266666666667     -0.000000011059      0.949917731180      0.949917742240
      0.270370370370     -0.000000011001      0.950169922650      0.950169933651
      0.274074074074     -0.000000010943      0.950422170102      0.950422181045
      0.277777777778     -0.000000010885      0.950674472811      0.950674483696
      0.281481481481     -0.000000010826      0.950926830051      0.950926840878
      0.285185185185     -0.000000010768      0.951179241095      0.951179251863
      0.288888888889     -0.000000010710      0.951431705216      0.951431715926
      0.292592592593     -0.000000010651      0.951684221685      0.951684232336
      0.296296296296     -0.000000010593      0.951936789774      0.951936800367
      0.300000000000     -0.000000010534      0.952189408754      0.952189419289
      0.303703703704     -0.000000010476      0.952442077895      0.952442088371
      0.307407407407     -0.000000010418      0.952694796466      0.952694806884
      0.311111111111     -0.000000010359      0.952947563737      0.952947574097
      0.314814814815     -0.000000010301      0.953200378977      0.953200389277
      0.318518518519     -0.000000010242      0.953453241452      0.953453251694
      0.322222222222     -0.000000010184      0.953706150431      0.953706160615
      0.325925925926     -0.000000010125      0.953959105181      0.953959115306
      0.329629629630     -0.000000010067      0.954212104967      0.954212115034
      0.333333333333     -0.000000010008      0.954465149056      0.954465159064
      0.337037037037     -0.000000009950      0.954718236713      0.954718246662
      0.340740740741     -0.000000009891      0.954971367202      0.954971377093
      0.344444444444     -0.000000009833      0.955224539789      0.955224549622
      0.348148148148     -0.000000009774      0.955477753737      0.955477763511
      0.351851851852     -0.000000009716      0.955731008309      0.955731018024
      0.355555555556     -0.000000009657      0.955984302768      0.955984312425
      0.359259259259     -0.000000009599      0.956237636377      0.956237645976
      0.362962962963     -0.000000009540      0.956491008398      0.956491017938
      0.366666666667     -0.000000009481      0.956744418092      0.956744427573
      0.370370370370     -0.000000009423      0.956997864720      0.956997874143
      0.374074074074     -0.000000009364      0.957251347544      0.957251356908
      0.377777777778     -0.000000009306      0.957504865823      0.957504875128
      0.381481481481     -0.000000009247      0.957758418817      0.957758428064
      0.385185185185     -0.000000009189      0.958012005785      0.958012014974
      0.388888888889     -0.000000009130      0.958265625988      0.958265635118
      0.392592592593     -0.000000009071      0.958519278683      0.958519287754
      0.396296296296     -0.000000009013      0.958772963128      0.958772972141
      0.400000000000     -0.000000008954      0.959026678582      0.959026687537
      0.403703703704     -0.000000008896      0.959280424303      0.959280433199
      0.407407407407     -0.000000008837      0.959534199547      0.959534208384
      0.411111111111     -0.000000008779      0.959788003572      0.959788012350
      0.414814814815     -0.000000008720      0.960041835633      0.960041844353
      0.418518518519     -0.000000008662      0.960295694988      0.960295703650
      0.422222222222     -0.000000008603      0.960549580892      0.960549589495
      0.425925925926     -0.000000008545      0.960803492601      0.960803501145
      0.429629629630     -0.000000008486      0.961057429370      0.961057437856
      0.433333333333     -0.000000008428      0.961311390454      0.961311398881
      0.437037037037     -0.000000008369      0.961565375108      0.961565383477
      0.440740740741     -0.000000008311      0.961819382586      0.961819390897
      0.444444444444     -0.000000008252      0.962073412143      0.962073420395
      0.448148148148     -0.000000008194      0.962327463033      0.962327471226
      0.451851851852     -0.000000008135      0.962581534508      0.962581542644
      0.455555555556     -0.000000008077      0.962835625824      0.962835633901
      0.459259259259     -0.000000008018      0.963089736233      0.963089744251
      0.462962962963     -0.000000007960      0.963343864987      0.963343872947
      0.466666666667     -0.000000007902      0.963598011341      0.963598019242
      0.470370370370     -0.000000007843      0.963852174545      0.963852182389
      0.474074074074     -0.000000007785      0.964106353854      0.964106361639
      0.477777777778     -0.000000007727      0.964360548519      0.964360556246
      0.481481481481     -0.000000007668      0.964614757792      0.964614765460
      0.485185185185     -0.000000007610      0.964868980925      0.964868988535
      0.488888888889     -0.000000007552      0.965123217170      0.965123224722
      0.492592592593     -0.000000007494      0.965377465778      0.965377473272
      0.496296296296     -0.000000007435      0.965631726001      0.965631733436
      0.500000000000     -0.000000007377      0.965885997090      0.965886004467
      0.503703703704     -0.000000007319      0.966140278296      0.966140285615
      0.507407407407     -0.000000007261      0.966394568870      0.966394576131
      0.511111111111     -0.000000007203      0.966648868064      0.966648875266
      0.514814814815     -0.000000007145      0.966903175127      0.966903182272
      0.518518518519     -0.000000007086      0.967157489311      0.967157496398
      0.522222222222     -0.000000007028      0.967411809867      0.967411816896
      0.525925925926     -0.000000006970      0.967666136045      0.967666143015
      0.529629629630     -0.000000006912      0.967920467095      0.967920474008
      0.533333333333     -0.000000006854      0.968174802269      0.968174809123
      0.537037037037     -0.000000006796      0.968429140815      0.968429147612
      0.540740740741     -0.000000006738      0.968683481986      0.968683488725
      0.544444444444     -0.000000006681      0.968937825031      0.968937831712
      0.548148148148     -0.000000006623      0.969192169200      0.969192175823
      0.551851851852     -0.000000006565      0.969446513745      0.969446520309
      0.555555555556     -0.000000006507      0.969700857914      0.969700864421
      0.559259259259     -0.000000006449      0.969955200959      0.969955207408
      0.562962962963     -0.000000006392      0.970209542129      0.970209548521
      0.566666666667     -0.000000006334      0.970463880676      0.970463887010
      0.570370370370     -0.000000006276      0.970718215850      0.970718222126
      0.574074074074     -0.000000006219      0.970972546900      0.970972553119
      0.577777777778     -0.000000006161      0.971226873078      0.971226879239
      0.581481481481     -0.000000006104      0.971481193634      0.971481199737
      0.585185185185     -0.000000006046      0.971735507818      0.971735513864
      0.588888888889     -0.000000005989      0.971989814881      0.971989820870
      0.592592592593     -0.000000005931      0.972244114075      0.972244120006
      0.596296296296     -0.000000005874      0.972498404649      0.972498410523
      0.600000000000     -0.000000005816      0.972752685855      0.972752691672
      0.603703703704     -0.000000005759      0.973006956944      0.973006962703
      0.607407407407     -0.000000005702      0.973261217167      0.973261222869
      0.611111111111     -0.000000005645      0.973515465775      0.973515471420
      0.614814814815     -0.000000005587      0.973769702020      0.973769707607
      0.618518518519     -0.000000005530      0.974023925153      0.974023930683
      0.622222222222     -0.000000005473      0.974278134426      0.974278139899
      0.625925925926     -0.000000005416      0.974532329091      0.974532334507
      0.629629629630     -0.000000005359      0.974786508399      0.974786513759
      0.633333333333     -0.000000005302      0.975040671604      0.975040676907
      0.637037037037     -0.000000005245      0.975294817958      0.975294823203
      0.640740740741     -0.000000005188      0.975548946712      0.975548951901
      0.644444444444     -0.000000005132      0.975803057121      0.975803062253
      0.648148148148     -0.000000005075      0.976057148437      0.976057153511
      0.651851851852     -0.000000005018      0.976311219912      0.976311224930
      0.655555555556     -0.000000004961      0.976565270802      0.976565275763
      0.659259259259     -0.000000004905      0.976819300359      0.976819305264
      0.662962962963     -0.000000004848      0.977073307837      0.977073312685
      0.666666666667     -0.000000004792      0.977327292491      0.977327297283
      0.670370370370     -0.000000004735      0.977581253575      0.977581258311
      0.674074074074     -0.000000004679      0.977835190344      0.977835195023
      0.677777777778     -0.000000004623      0.978089102053      0.978089106675
      0.681481481481     -0.000000004566      0.978342987957      0.978342992523
      0.685185185185     -0.000000004510      0.978596847312      0.978596851822
      0.688888888889     -0.000000004454      0.978850679373      0.978850683827
      0.692592592593     -0.000000004398      0.979104483398      0.979104487796
      0.696296296296     -0.000000004342      0.979358258642      0.979358262984
      0.700000000000     -0.000000004286      0.979612004363      0.979612008648
      0.703703703704     -0.000000004230      0.979865719817      0.979865724047
      0.707407407407     -0.000000004174      0.980119404262      0.980119408436
      0.711111111111     -0.000000004118      0.980373056957      0.980373061075
      0.714814814815     -0.000000004062      0.980626677160      0.980626681222
      0.718518518519     -0.000000004007      0.980880264128      0.980880268135
      0.722222222222     -0.000000003951      0.981133817122      0.981133821073
      0.725925925926     -0.000000003895      0.981387335401      0.981387339296
      0.729629629630     -0.000000003840      0.981640818225      0.981640822064
      0.733333333333     -0.000000003784      0.981894264853      0.981894268637
      0.737037037037     -0.000000003729      0.982147674547      0.982147678276
      0.740740740741     -0.000000003674      0.982401046568      0.982401050241
      0.744444444444     -0.000000003618      0.982654380177      0.982654383795
      0.748148148148     -0.000000003563      0.982907674636      0.982907678199
      0.751851851852     -0.000000003508      0.983160929208      0.983160932716
      0.755555555556     -0.000000003453      0.983414143156      0.983414146609
      0.759259259259     -0.000000003398      0.983667315743      0.983667319141
      0.762962962963     -0.000000003343      0.983920446232      0.983920449575
      0.766666666667     -0.000000003288      0.984173533889      0.984173537177
      0.770370370370     -0.000000003234      0.984426577978      0.984426581212
      0.774074074074     -0.000000003179      0.984679577764      0.984679580943
      0.777777777778     -0.000000003124      0.984932532514      0.984932535638
      0.781481481481     -0.000000003070      0.985185441493      0.985185444562
      0.785185185185     -0.000000003015      0.985438303968      0.985438306983
      0.788888888889     -0.000000002961      0.985691119207      0.985691122168
      0.792592592593     -0.000000002906      0.985943886479      0.985943889385
      0.796296296296     -0.000000002852      0.986196605050      0.986196607902
      0.800000000000     -0.000000002798      0.986449274191      0.986449276989
      0.803703703704     -0.000000002744      0.986701893171      0.986701895915
      0.807407407407     -0.000000002690      0.986954461260      0.986954463950
      0.811111111111     -0.000000002636      0.987206977729      0.987206980365
      0.814814814815     -0.000000002582      0.987459441850      0.987459444431
      0.818518518519     -0.000000002528      0.987711852893      0.987711855422
      0.822222222222     -0.000000002474      0.987964210134      0.987964212608
      0.825925925926     -0.000000002421      0.988216512843      0.988216515264
      0.829629629630     -0.000000002367      0.988468760295      0.988468762662
      0.833333333333     -0.000000002314      0.988720951765      0.988720954079
      0.837037037037     -0.000000002260      0.988973086527      0.988973088788
      0.840740740741     -0.000000002207      0.989225163858      0.989225166065
      0.844444444444     -0.000000002154      0.989477183034      0.989477185188
      0.848148148148     -0.000000002101      0.989729143332      0.989729145432
      0.851851851852     -0.000000002048      0.989981044029      0.989981046077
      0.855555555556     -0.000000001995      0.990232884405      0.990232886399
      0.859259259259     -0.000000001942      0.990484663737      0.990484665679
      0.862962962963     -0.000000001889      0.990736381307      0.990736383196
      0.866666666667     -0.000000001836      0.990988036394      0.990988038231
      0.870370370370     -0.000000001784      0.991239628281      0.991239630064
      0.874074074074     -0.000000001731      0.991491156248      0.991491157979
      0.877777777778     -0.000000001678      0.991742619578      0.991742621257
      0.881481481481     -0.000000001626      0.991994017556      0.991994019182
      0.885185185185     -0.000000001574      0.992245349464      0.992245351038
      0.888888888889     -0.000000001522      0.992496614589      0.992496616110
      0.892592592593     -0.000000001470      0.992747812215      0.992747813685
      0.896296296296     -0.000000001418      0.992998941630      0.992998943047
      0.900000000000     -0.000000001366      0.993250002120      0.993250003485
      0.903703703704     -0.000000001314      0.993500992973      0.993500994287
      0.907407407407     -0.000000001262      0.993751913479      0.993751914741
      0.911111111111     -0.000000001210      0.994002762926      0.994002764136
      0.914814814815     -0.000000001159      0.994253540606      0.994253541765
      0.918518518519     -0.000000001107      0.994504245809      0.994504246916
      0.922222222222     -0.000000001056      0.994754877828      0.994754878884
      0.925925925926     -0.000000001005      0.995005435955      0.995005436960
      0.929629629630     -0.000000000954      0.995255919485      0.995255920438
      0.933333333333     -0.000000000902      0.995506327711      0.995506328613
      0.937037037037     -0.000000000851      0.995756659929      0.995756660781
      0.940740740741     -0.000000000801      0.996006915436      0.996006916237
      0.944444444444     -0.000000000750      0.996257093529      0.996257094279
      0.948148148148     -0.000000000699      0.996507193505      0.996507194204
      0.951851851852     -0.000000000648      0.996757214664      0.996757215312
      0.955555555556     -0.000000000598      0.997007156305      0.997007156903
      0.959259259259     -0.000000000548      0.997257017729      0.997257018276
      0.962962962963     -0.000000000497      0.997506798238      0.997506798735
      0.966666666667     -0.000000000447      0.997756497133      0.997756497581
      0.970370370370     -0.000000000397      0.998006113720      0.998006114117
      0.974074074074     -0.000000000347      0.998255647302      0.998255647649
      0.977777777778     -0.000000000297      0.998505097184      0.998505097481
      0.981481481481     -0.000000000247      0.998754462672      0.998754462920
      0.985185185185     -0.000000000198      0.999003743075      0.999003743272
      0.988888888889     -0.000000000148      0.999252937699      0.999252937847
      0.992592592593     -0.000000000099      0.999502045855      0.999502045953
      0.996296296296     -0.000000000049      0.999751066851      0.999751066900
      1.000000000000     -0.000000000000      1.000000000000      1.000000000000
