             radius   SpeedofSoundError            Expected              Actual 
      0.100000000000     -0.000000000792      0.994376265207      0.994376265999
      0.128125000000     -0.000000000767      0.994551982991      0.994551983758
      0.156250000000     -0.000000000742      0.994727705406      0.994727706148
      0.184375000000     -0.000000000717      0.994903432143      0.994903432861
      0.212500000000     -0.000000000692      0.995079162894      0.995079163586
      0.240625000000     -0.000000000668      0.995254897350      0.995254898017
      0.268750000000     -0.000000000643      0.995430635202      0.995430635845
      0.296875000000     -0.000000000618      0.995606376142      0.995606376760
      0.325000000000     -0.000000000593      0.995782119860      0.995782120454
      0.353125000000     -0.000000000568      0.995957866049      0.995957866618
      0.381250000000     -0.000000000543      0.996133614400      0.996133614943
      0.409375000000     -0.000000000519      0.996309364603      0.996309365122
      0.437500000000     -0.000000000494      0.996485116351      0.996485116844
      0.465625000000     -0.000000000469      0.996660869333      0.996660869802
      0.493750000000     -0.000000000444      0.996836623242      0.996836623686
      0.521875000000     -0.000000000420      0.997012377768      0.997012378188
      0.550000000000     -0.000000000395      0.997188132604      0.997188132999
      0.578125000000     -0.000000000370      0.997363887439      0.997363887809
      0.606250000000     -0.000000000345      0.997539641966      0.997539642311
      0.634375000000     -0.000000000321      0.997715395874      0.997715396195
      0.662500000000     -0.000000000296      0.997891148857      0.997891149153
      0.690625000000     -0.000000000271      0.998066900604      0.998066900875
      0.718750000000     -0.000000000246      0.998242650808      0.998242651054
      0.746875000000     -0.000000000222      0.998418399158      0.998418399380
      0.775000000000     -0.000000000197      0.998594145347      0.998594145544
      0.803125000000     -0.000000000172      0.998769889066      0.998769889238
      0.831250000000     -0.000000000148      0.998945630006      0.998945630153
      0.859375000000     -0.000000000123      0.999121367858      0.999121367981
      0.887500000000     -0.000000000098      0.999297102314      0.999297102412
      0.915625000000     -0.000000000074      0.999472833064      0.999472833138
      0.943750000000     -0.000000000049      0.999648559801      0.999648559851
      0.971875000000     -0.000000000025      0.999824282216      0.999824282241
      1.000000000000     -0.000000000000      1.000000000000      1.000000000000
