             radius   SpeedofSoundError            Expected              Actual 
      0.250000000000     -0.000000007862      0.948783581769      0.948783589631
      0.253086419753     -0.000000007828      0.948993519792      0.948993527621
      0.256172839506     -0.000000007795      0.949203499038      0.949203506832
      0.259259259259     -0.000000007761      0.949413519087      0.949413526848
      0.262345679012     -0.000000007727      0.949623579521      0.949623587249
      0.265432098765     -0.000000007694      0.949833679923      0.949833687616
      0.268518518519     -0.000000007660      0.950043819872      0.950043827532
      0.271604938272     -0.000000007626      0.950253998950      0.950254006576
      0.274691358025     -0.000000007593      0.950464216736      0.950464224329
      0.277777777778     -0.000000007559      0.950674472811      0.950674480370
      0.280864197531     -0.000000007525      0.950884766755      0.950884774280
      0.283950617284     -0.000000007491      0.951095098147      0.951095105639
      0.287037037037     -0.000000007458      0.951305466567      0.951305474024
      0.290123456790     -0.000000007424      0.951515871592      0.951515879016
      0.293209876543     -0.000000007390      0.951726312802      0.951726320192
      0.296296296296     -0.000000007356      0.951936789774      0.951936797130
      0.299382716049     -0.000000007322      0.952147302088      0.952147309410
      0.302469135802     -0.000000007289      0.952357849320      0.952357856608
      0.305555555556     -0.000000007255      0.952568431047      0.952568438302
      0.308641975309     -0.000000007221      0.952779046848      0.952779054069
      0.311728395062     -0.000000007187      0.952989696299      0.952989703486
      0.314814814815     -0.000000007153      0.953200378977      0.953200386130
      0.317901234568     -0.000000007119      0.953411094457      0.953411101577
      0.320987654321     -0.000000007086      0.953621842316      0.953621849402
      0.324074074074     -0.000000007052      0.953832622130      0.953832629182
      0.327160493827     -0.000000007018      0.954043433475      0.954043440493
      0.330246913580     -0.000000006984      0.954254275925      0.954254282909
      0.333333333333     -0.000000006950      0.954465149056      0.954465156006
      0.336419753086     -0.000000006916      0.954676052442      0.954676059358
      0.339506172840     -0.000000006882      0.954886985659      0.954886992541
      0.342592592593     -0.000000006849      0.955097948279      0.955097955128
      0.345679012346     -0.000000006815      0.955308939879      0.955308946694
      0.348765432099     -0.000000006781      0.955519960031      0.955519966812
      0.351851851852     -0.000000006747      0.955731008309      0.955731015056
      0.354938271605     -0.000000006713      0.955942084286      0.955942090999
      0.358024691358     -0.000000006679      0.956153187536      0.956153194216
      0.361111111111     -0.000000006645      0.956364317632      0.956364324278
      0.364197530864     -0.000000006611      0.956575474147      0.956575480758
      0.367283950617     -0.000000006578      0.956786656652      0.956786663229
      0.370370370370     -0.000000006544      0.956997864720      0.956997871264
      0.373456790123     -0.000000006510      0.957209097924      0.957209104434
      0.376543209877     -0.000000006476      0.957420355836      0.957420362312
      0.379629629630     -0.000000006442      0.957631638026      0.957631644468
      0.382716049383     -0.000000006408      0.957842944068      0.957842950476
      0.385802469136     -0.000000006374      0.958054273531      0.958054279905
      0.388888888889     -0.000000006340      0.958265625988      0.958265632328
      0.391975308642     -0.000000006306      0.958477001008      0.958477007315
      0.395061728395     -0.000000006273      0.958688398164      0.958688404437
      0.398148148148     -0.000000006239      0.958899817026      0.958899823264
      0.401234567901     -0.000000006205      0.959111257163      0.959111263368
      0.404320987654     -0.000000006171      0.959322718147      0.959322724318
      0.407407407407     -0.000000006137      0.959534199547      0.959534205684
      0.410493827160     -0.000000006103      0.959745700934      0.959745707037
      0.413580246914     -0.000000006069      0.959957221877      0.959957227946
      0.416666666667     -0.000000006035      0.960168761945      0.960168767981
      0.419753086420     -0.000000006001      0.960380320710      0.960380326711
      0.422839506173     -0.000000005968      0.960591897738      0.960591903706
      0.425925925926     -0.000000005934      0.960803492601      0.960803498535
      0.429012345679     -0.000000005900      0.961015104866      0.961015110766
      0.432098765432     -0.000000005866      0.961226734103      0.961226739969
      0.435185185185     -0.000000005832      0.961438379881      0.961438385713
      0.438271604938     -0.000000005798      0.961650041768      0.961650047566
      0.441358024691     -0.000000005765      0.961861719333      0.961861725097
      0.444444444444     -0.000000005731      0.962073412143      0.962073417874
      0.447530864198     -0.000000005697      0.962285119768      0.962285125465
      0.450617283951     -0.000000005663      0.962496841775      0.962496847438
      0.453703703704     -0.000000005629      0.962708577733      0.962708583362
      0.456790123457     -0.000000005595      0.962920327209      0.962920332804
      0.459876543210     -0.000000005562      0.963132089771      0.963132095333
      0.462962962963     -0.000000005528      0.963343864987      0.963343870515
      0.466049382716     -0.000000005494      0.963555652425      0.963555657919
      0.469135802469     -0.000000005460      0.963767451651      0.963767457111
      0.472222222222     -0.000000005426      0.963979262234      0.963979267660
      0.475308641975     -0.000000005393      0.964191083740      0.964191089133
      0.478395061728     -0.000000005359      0.964402915737      0.964402921096
      0.481481481481     -0.000000005325      0.964614757792      0.964614763117
      0.484567901235     -0.000000005292      0.964826609472      0.964826614764
      0.487654320988     -0.000000005258      0.965038470344      0.965038475602
      0.490740740741     -0.000000005224      0.965250339975      0.965250345199
      0.493827160494     -0.000000005190      0.965462217932      0.965462223122
      0.496913580247     -0.000000005157      0.965674103781      0.965674108938
      0.500000000000     -0.000000005123      0.965885997090      0.965886002213
      0.503086419753     -0.000000005089      0.966097897424      0.966097902513
      0.506172839506     -0.000000005056      0.966309804351      0.966309809406
      0.509259259259     -0.000000005022      0.966521717436      0.966521722458
      0.512345679012     -0.000000004988      0.966733636247      0.966733641236
      0.515432098765     -0.000000004955      0.966945560350      0.966945565305
      0.518518518519     -0.000000004921      0.967157489311      0.967157494233
      0.521604938272     -0.000000004888      0.967369422697      0.967369427585
      0.524691358025     -0.000000004854      0.967581360074      0.967581364928
      0.527777777778     -0.000000004820      0.967793301008      0.967793305828
      0.530864197531     -0.000000004787      0.968005245065      0.968005249852
      0.533950617284     -0.000000004753      0.968217191812      0.968217196566
      0.537037037037     -0.000000004720      0.968429140815      0.968429145535
      0.540123456790     -0.000000004686      0.968641091641      0.968641096327
      0.543209876543     -0.000000004653      0.968853043854      0.968853048507
      0.546296296296     -0.000000004619      0.969064997022      0.969065001641
      0.549382716049     -0.000000004586      0.969276950710      0.969276955296
      0.552469135802     -0.000000004552      0.969488904486      0.969488909038
      0.555555555556     -0.000000004519      0.969700857914      0.969700862433
      0.558641975309     -0.000000004485      0.969912810561      0.969912815047
      0.561728395062     -0.000000004452      0.970124761994      0.970124766446
      0.564814814815     -0.000000004419      0.970336711778      0.970336716196
      0.567901234568     -0.000000004385      0.970548659479      0.970548663864
      0.570987654321     -0.000000004352      0.970760604665      0.970760609016
      0.574074074074     -0.000000004319      0.970972546900      0.970972551219
      0.577160493827     -0.000000004285      0.971184485752      0.971184490037
      0.580246913580     -0.000000004252      0.971396420786      0.971396425038
      0.583333333333     -0.000000004219      0.971608351569      0.971608355788
      0.586419753086     -0.000000004185      0.971820277667      0.971820281853
      0.589506172840     -0.000000004152      0.972032198647      0.972032202799
      0.592592592593     -0.000000004119      0.972244114075      0.972244118194
      0.595679012346     -0.000000004086      0.972456023517      0.972456027603
      0.598765432099     -0.000000004052      0.972667926540      0.972667930593
      0.601851851852     -0.000000004019      0.972879822711      0.972879826730
      0.604938271605     -0.000000003986      0.973091711596      0.973091715582
      0.608024691358     -0.000000003953      0.973303592762      0.973303596715
      0.611111111111     -0.000000003920      0.973515465775      0.973515469695
      0.614197530864     -0.000000003887      0.973727330203      0.973727334089
      0.617283950617     -0.000000003854      0.973939185612      0.973939189465
      0.620370370370     -0.000000003821      0.974151031569      0.974151035389
      0.623456790123     -0.000000003788      0.974362867641      0.974362871428
      0.626543209877     -0.000000003755      0.974574693395      0.974574697150
      0.629629629630     -0.000000003722      0.974786508399      0.974786512121
      0.632716049383     -0.000000003689      0.974998312220      0.974998315909
      0.635802469136     -0.000000003656      0.975210104425      0.975210108081
      0.638888888889     -0.000000003623      0.975421884582      0.975421888204
      0.641975308642     -0.000000003590      0.975633652257      0.975633655847
      0.645061728395     -0.000000003557      0.975845407020      0.975845410577
      0.648148148148     -0.000000003524      0.976057148437      0.976057151961
      0.651234567901     -0.000000003491      0.976268876076      0.976268879567
      0.654320987654     -0.000000003459      0.976480589505      0.976480592964
      0.657407407407     -0.000000003426      0.976692288294      0.976692291719
      0.660493827160     -0.000000003393      0.976903972008      0.976903975401
      0.663580246914     -0.000000003360      0.977115640218      0.977115643578
      0.666666666667     -0.000000003328      0.977327292491      0.977327295819
      0.669753086420     -0.000000003295      0.977538928396      0.977538931691
      0.672839506173     -0.000000003262      0.977750547502      0.977750550764
      0.675925925926     -0.000000003230      0.977962149378      0.977962152607
      0.679012345679     -0.000000003197      0.978173733592      0.978173736789
      0.682098765432     -0.000000003165      0.978385299713      0.978385302878
      0.685185185185     -0.000000003132      0.978596847312      0.978596850444
      0.688271604938     -0.000000003099      0.978808375957      0.978808379056
      0.691358024691     -0.000000003067      0.979019885217      0.979019888284
      0.694444444444     -0.000000003035      0.979231374664      0.979231377698
      0.697530864198     -0.000000003002      0.979442843866      0.979442846868
      0.700617283951     -0.000000002970      0.979654292393      0.979654295363
      0.703703703704     -0.000000002937      0.979865719817      0.979865722754
      0.706790123457     -0.000000002905      0.980077125706      0.980077128611
      0.709876543210     -0.000000002873      0.980288509633      0.980288512505
      0.712962962963     -0.000000002840      0.980499871166      0.980499874007
      0.716049382716     -0.000000002808      0.980711209878      0.980711212687
      0.719135802469     -0.000000002776      0.980922525340      0.980922528116
      0.722222222222     -0.000000002744      0.981133817122      0.981133819866
      0.725308641975     -0.000000002712      0.981345084797      0.981345087508
      0.728395061728     -0.000000002679      0.981556327935      0.981556330615
      0.731481481481     -0.000000002647      0.981767546109      0.981767548757
      0.734567901235     -0.000000002615      0.981978738891      0.981978741506
      0.737654320988     -0.000000002583      0.982189905853      0.982189908436
      0.740740740741     -0.000000002551      0.982401046568      0.982401049119
      0.743827160494     -0.000000002519      0.982612160607      0.982612163127
      0.746913580247     -0.000000002487      0.982823247545      0.982823250032
      0.750000000000     -0.000000002455      0.983034306954      0.983034309409
      0.753086419753     -0.000000002423      0.983245338408      0.983245340831
      0.756172839506     -0.000000002392      0.983456341479      0.983456343871
      0.759259259259     -0.000000002360      0.983667315743      0.983667318102
      0.762345679012     -0.000000002328      0.983878260772      0.983878263100
      0.765432098765     -0.000000002296      0.984089176141      0.984089178438
      0.768518518519     -0.000000002265      0.984300061426      0.984300063690
      0.771604938272     -0.000000002233      0.984510916199      0.984510918432
      0.774691358025     -0.000000002201      0.984721740037      0.984721742238
      0.777777777778     -0.000000002170      0.984932532514      0.984932534683
      0.780864197531     -0.000000002138      0.985143293206      0.985143295344
      0.783950617284     -0.000000002106      0.985354021689      0.985354023795
      0.787037037037     -0.000000002075      0.985564717538      0.985564719613
      0.790123456790     -0.000000002043      0.985775380330      0.985775382374
      0.793209876543     -0.000000002012      0.985986009642      0.985986011654
      0.796296296296     -0.000000001981      0.986196605050      0.986196607031
      0.799382716049     -0.000000001949      0.986407166131      0.986407168080
      0.802469135802     -0.000000001918      0.986617692463      0.986617694381
      0.805555555556     -0.000000001887      0.986828183622      0.986828185509
      0.808641975309     -0.000000001855      0.987038639188      0.987038641043
      0.811728395062     -0.000000001824      0.987249058737      0.987249060562
      0.814814814815     -0.000000001793      0.987459441850      0.987459443643
      0.817901234568     -0.000000001762      0.987669788103      0.987669789865
      0.820987654321     -0.000000001731      0.987880097077      0.987880098807
      0.824074074074     -0.000000001700      0.988090368350      0.988090370050
      0.827160493827     -0.000000001669      0.988300601502      0.988300603171
      0.830246913580     -0.000000001638      0.988510796114      0.988510797752
      0.833333333333     -0.000000001607      0.988720951765      0.988720953372
      0.836419753086     -0.000000001576      0.988931068036      0.988931069612
      0.839506172840     -0.000000001545      0.989141144507      0.989141146052
      0.842592592593     -0.000000001514      0.989351180761      0.989351182275
      0.845679012346     -0.000000001483      0.989561176378      0.989561177861
      0.848765432099     -0.000000001453      0.989771130940      0.989771132392
      0.851851851852     -0.000000001422      0.989981044029      0.989981045451
      0.854938271605     -0.000000001391      0.990190915228      0.990190916619
      0.858024691358     -0.000000001361      0.990400744120      0.990400745481
      0.861111111111     -0.000000001330      0.990610530287      0.990610531618
      0.864197530864     -0.000000001300      0.990820273314      0.990820274614
      0.867283950617     -0.000000001269      0.991029972784      0.991029974053
      0.870370370370     -0.000000001239      0.991239628281      0.991239629519
      0.873456790123     -0.000000001208      0.991449239389      0.991449240597
      0.876543209877     -0.000000001178      0.991658805694      0.991658806872
      0.879629629630     -0.000000001147      0.991868326781      0.991868327928
      0.882716049383     -0.000000001117      0.992077802235      0.992077803352
      0.885802469136     -0.000000001087      0.992287231642      0.992287232729
      0.888888888889     -0.000000001057      0.992496614589      0.992496615645
      0.891975308642     -0.000000001027      0.992705950662      0.992705951688
      0.895061728395     -0.000000000996      0.992915239448      0.992915240444
      0.898148148148     -0.000000000966      0.993124480535      0.993124481501
      0.901234567901     -0.000000000936      0.993333673510      0.993333674446
      0.904320987654     -0.000000000906      0.993542817962      0.993542818868
      0.907407407407     -0.000000000876      0.993751913479      0.993751914355
      0.910493827160     -0.000000000846      0.993960959650      0.993960960496
      0.913580246914     -0.000000000817      0.994169956064      0.994169956881
      0.916666666667     -0.000000000787      0.994378902311      0.994378903098
      0.919753086420     -0.000000000757      0.994587797982      0.994587798739
      0.922839506173     -0.000000000727      0.994796642666      0.994796643394
      0.925925925926     -0.000000000698      0.995005435955      0.995005436653
      0.929012345679     -0.000000000668      0.995214177440      0.995214178108
      0.932098765432     -0.000000000639      0.995422866713      0.995422867351
      0.935185185185     -0.000000000609      0.995631503365      0.995631503974
      0.938271604938     -0.000000000579      0.995840086990      0.995840087569
      0.941358024691     -0.000000000550      0.996048617180      0.996048617730
      0.944444444444     -0.000000000521      0.996257093529      0.996257094049
      0.947530864198     -0.000000000491      0.996465515630      0.996465516121
      0.950617283951     -0.000000000462      0.996673883078      0.996673883540
      0.953703703704     -0.000000000433      0.996882195468      0.996882195900
      0.956790123457     -0.000000000404      0.997090452393      0.997090452797
      0.959876543210     -0.000000000374      0.997298653451      0.997298653826
      0.962962962963     -0.000000000345      0.997506798238      0.997506798583
      0.966049382716     -0.000000000316      0.997714886348      0.997714886664
      0.969135802469     -0.000000000287      0.997922917380      0.997922917667
      0.972222222222     -0.000000000258      0.998130890930      0.998130891188
      0.975308641975     -0.000000000229      0.998338806597      0.998338806826
      0.978395061728     -0.000000000201      0.998546663978      0.998546664179
      0.981481481481     -0.000000000172      0.998754462672      0.998754462844
      0.984567901235     -0.000000000143      0.998962202279      0.998962202422
      0.987654320988     -0.000000000114      0.999169882398      0.999169882512
      0.990740740741     -0.000000000086      0.999377502629      0.999377502714
      0.993827160494     -0.000000000057      0.999585062572      0.999585062629
      0.996913580247     -0.000000000029      0.999792561828      0.999792561857
      1.000000000000     -0.000000000000      1.000000000000      1.000000000000
