             radius   SpeedofSoundError            Expected              Actual 
      0.100000000000     -0.000000000120      0.996251124595      0.996251124715
      0.113235294118     -0.000000000118      0.996306222777      0.996306222895
      0.126470588235     -0.000000000117      0.996361322395      0.996361322512
      0.139705882353     -0.000000000115      0.996416423429      0.996416423543
      0.152941176471     -0.000000000113      0.996471525856      0.996471525969
      0.166176470588     -0.000000000111      0.996526629656      0.996526629767
      0.179411764706     -0.000000000109      0.996581734807      0.996581734916
      0.192647058824     -0.000000000108      0.996636841287      0.996636841395
      0.205882352941     -0.000000000106      0.996691949076      0.996691949182
      0.219117647059     -0.000000000104      0.996747058152      0.996747058256
      0.232352941176     -0.000000000102      0.996802168493      0.996802168595
      0.245588235294     -0.000000000101      0.996857280078      0.996857280178
      0.258823529412     -0.000000000099      0.996912392886      0.996912392984
      0.272058823529     -0.000000000097      0.996967506894      0.996967506991
      0.285294117647     -0.000000000095      0.997022622083      0.997022622178
      0.298529411765     -0.000000000094      0.997077738430      0.997077738523
      0.311764705882     -0.000000000092      0.997132855914      0.997132856006
      0.325000000000     -0.000000000090      0.997187974513      0.997187974603
      0.338235294118     -0.000000000088      0.997243094207      0.997243094295
      0.351470588235     -0.000000000086      0.997298214973      0.997298215059
      0.364705882353     -0.000000000085      0.997353336790      0.997353336875
      0.377941176471     -0.000000000083      0.997408459638      0.997408459721
      0.391176470588     -0.000000000081      0.997463583493      0.997463583574
      0.404411764706     -0.000000000079      0.997518708336      0.997518708415
      0.417647058824     -0.000000000078      0.997573834144      0.997573834222
      0.430882352941     -0.000000000076      0.997628960896      0.997628960972
      0.444117647059     -0.000000000074      0.997684088571      0.997684088645
      0.457352941176     -0.000000000072      0.997739217147      0.997739217219
      0.470588235294     -0.000000000071      0.997794346603      0.997794346673
      0.483823529412     -0.000000000069      0.997849476917      0.997849476986
      0.497058823529     -0.000000000067      0.997904608068      0.997904608135
      0.510294117647     -0.000000000065      0.997959740035      0.997959740100
      0.523529411765     -0.000000000064      0.998014872795      0.998014872859
      0.536764705882     -0.000000000062      0.998070006328      0.998070006390
      0.550000000000     -0.000000000060      0.998125140612      0.998125140672
      0.563235294118     -0.000000000058      0.998180275626      0.998180275684
      0.576470588235     -0.000000000056      0.998235411348      0.998235411405
      0.589705882353     -0.000000000055      0.998290547757      0.998290547812
      0.602941176471     -0.000000000053      0.998345684831      0.998345684884
      0.616176470588     -0.000000000051      0.998400822549      0.998400822600
      0.629411764706     -0.000000000049      0.998455960890      0.998455960939
      0.642647058824     -0.000000000048      0.998511099831      0.998511099879
      0.655882352941     -0.000000000046      0.998566239352      0.998566239398
      0.669117647059     -0.000000000044      0.998621379431      0.998621379475
      0.682352941176     -0.000000000042      0.998676520047      0.998676520089
      0.695588235294     -0.000000000041      0.998731661177      0.998731661218
      0.708823529412     -0.000000000039      0.998786802802      0.998786802840
      0.722058823529     -0.000000000037      0.998841944898      0.998841944935
      0.735294117647     -0.000000000035      0.998897087446      0.998897087481
      0.748529411765     -0.000000000033      0.998952230422      0.998952230456
      0.761764705882     -0.000000000032      0.999007373807      0.999007373839
      0.775000000000     -0.000000000030      0.999062517578      0.999062517608
      0.788235294118     -0.000000000028      0.999117661714      0.999117661742
      0.801470588235     -0.000000000026      0.999172806193      0.999172806219
      0.814705882353     -0.000000000025      0.999227950994      0.999227951019
      0.827941176471     -0.000000000023      0.999283096096      0.999283096119
      0.841176470588     -0.000000000021      0.999338241477      0.999338241498
      0.854411764706     -0.000000000019      0.999393387115      0.999393387134
      0.867647058824     -0.000000000018      0.999448532990      0.999448533007
      0.880882352941     -0.000000000016      0.999503679079      0.999503679095
      0.894117647059     -0.000000000014      0.999558825361      0.999558825375
      0.907352941176     -0.000000000012      0.999613971815      0.999613971828
      0.920588235294     -0.000000000011      0.999669118420      0.999669118430
      0.933823529412     -0.000000000009      0.999724265153      0.999724265162
      0.947058823529     -0.000000000007      0.999779411994      0.999779412001
      0.960294117647     -0.000000000005      0.999834558920      0.999834558925
      0.973529411765     -0.000000000004      0.999889705911      0.999889705914
      0.986764705882     -0.000000000002      0.999944852945      0.999944852947
      1.000000000000      0.000000000000      1.000000000000      1.000000000000
