             radius   SpeedofSoundError            Expected              Actual 
      0.100000000000     -0.000000000088      0.994376265207      0.994376265295
      0.109375000000     -0.000000000087      0.994434837269      0.994434837356
      0.118750000000     -0.000000000086      0.994493409867      0.994493409953
      0.128125000000     -0.000000000085      0.994551982991      0.994551983077
      0.137500000000     -0.000000000084      0.994610556630      0.994610556715
      0.146875000000     -0.000000000083      0.994669130772      0.994669130856
      0.156250000000     -0.000000000082      0.994727705406      0.994727705489
      0.165625000000     -0.000000000082      0.994786280520      0.994786280602
      0.175000000000     -0.000000000081      0.994844856103      0.994844856184
      0.184375000000     -0.000000000080      0.994903432143      0.994903432223
      0.193750000000     -0.000000000079      0.994962008629      0.994962008708
      0.203125000000     -0.000000000078      0.995020585550      0.995020585628
      0.212500000000     -0.000000000077      0.995079162894      0.995079162971
      0.221875000000     -0.000000000076      0.995137740649      0.995137740725
      0.231250000000     -0.000000000075      0.995196318805      0.995196318880
      0.240625000000     -0.000000000074      0.995254897350      0.995254897424
      0.250000000000     -0.000000000073      0.995313476272      0.995313476345
      0.259375000000     -0.000000000072      0.995372055559      0.995372055632
      0.268750000000     -0.000000000071      0.995430635202      0.995430635273
      0.278125000000     -0.000000000070      0.995489215187      0.995489215258
      0.287500000000     -0.000000000070      0.995547795504      0.995547795574
      0.296875000000     -0.000000000069      0.995606376142      0.995606376210
      0.306250000000     -0.000000000068      0.995664957088      0.995664957155
      0.315625000000     -0.000000000067      0.995723538331      0.995723538398
      0.325000000000     -0.000000000066      0.995782119860      0.995782119926
      0.334375000000     -0.000000000065      0.995840701664      0.995840701729
      0.343750000000     -0.000000000064      0.995899283731      0.995899283795
      0.353125000000     -0.000000000063      0.995957866049      0.995957866113
      0.362500000000     -0.000000000062      0.996016448608      0.996016448670
      0.371875000000     -0.000000000061      0.996075031395      0.996075031457
      0.381250000000     -0.000000000060      0.996133614400      0.996133614460
      0.390625000000     -0.000000000059      0.996192197610      0.996192197670
      0.400000000000     -0.000000000059      0.996250781015      0.996250781074
      0.409375000000     -0.000000000058      0.996309364603      0.996309364661
      0.418750000000     -0.000000000057      0.996367948363      0.996367948419
      0.428125000000     -0.000000000056      0.996426532282      0.996426532338
      0.437500000000     -0.000000000055      0.996485116351      0.996485116405
      0.446875000000     -0.000000000054      0.996543700556      0.996543700610
      0.456250000000     -0.000000000053      0.996602284887      0.996602284940
      0.465625000000     -0.000000000052      0.996660869333      0.996660869385
      0.475000000000     -0.000000000051      0.996719453882      0.996719453933
      0.484375000000     -0.000000000050      0.996778038522      0.996778038572
      0.493750000000     -0.000000000049      0.996836623242      0.996836623291
      0.503125000000     -0.000000000048      0.996895208031      0.996895208079
      0.512500000000     -0.000000000048      0.996953792877      0.996953792924
      0.521875000000     -0.000000000047      0.997012377768      0.997012377815
      0.531250000000     -0.000000000046      0.997070962694      0.997070962740
      0.540625000000     -0.000000000045      0.997129547643      0.997129547688
      0.550000000000     -0.000000000044      0.997188132604      0.997188132648
      0.559375000000     -0.000000000043      0.997246717564      0.997246717607
      0.568750000000     -0.000000000042      0.997305302513      0.997305302555
      0.578125000000     -0.000000000041      0.997363887439      0.997363887480
      0.587500000000     -0.000000000040      0.997422472331      0.997422472371
      0.596875000000     -0.000000000039      0.997481057177      0.997481057216
      0.606250000000     -0.000000000038      0.997539641966      0.997539642004
      0.615625000000     -0.000000000037      0.997598226686      0.997598226723
      0.625000000000     -0.000000000037      0.997656811326      0.997656811362
      0.634375000000     -0.000000000036      0.997715395874      0.997715395910
      0.643750000000     -0.000000000035      0.997773980320      0.997773980355
      0.653125000000     -0.000000000034      0.997832564651      0.997832564685
      0.662500000000     -0.000000000033      0.997891148857      0.997891148890
      0.671875000000     -0.000000000032      0.997949732925      0.997949732957
      0.681250000000     -0.000000000031      0.998008316845      0.998008316876
      0.690625000000     -0.000000000030      0.998066900604      0.998066900634
      0.700000000000     -0.000000000029      0.998125484192      0.998125484221
      0.709375000000     -0.000000000028      0.998184067597      0.998184067625
      0.718750000000     -0.000000000027      0.998242650808      0.998242650835
      0.728125000000     -0.000000000026      0.998301233812      0.998301233839
      0.737500000000     -0.000000000026      0.998359816599      0.998359816625
      0.746875000000     -0.000000000025      0.998418399158      0.998418399183
      0.756250000000     -0.000000000024      0.998476981476      0.998476981500
      0.765625000000     -0.000000000023      0.998535563543      0.998535563566
      0.775000000000     -0.000000000022      0.998594145347      0.998594145369
      0.784375000000     -0.000000000021      0.998652726876      0.998652726897
      0.793750000000     -0.000000000020      0.998711308120      0.998711308140
      0.803125000000     -0.000000000019      0.998769889066      0.998769889085
      0.812500000000     -0.000000000018      0.998828469703      0.998828469721
      0.821875000000     -0.000000000017      0.998887050020      0.998887050038
      0.831250000000     -0.000000000016      0.998945630006      0.998945630022
      0.840625000000     -0.000000000016      0.999004209648      0.999004209664
      0.850000000000     -0.000000000015      0.999062788936      0.999062788951
      0.859375000000     -0.000000000014      0.999121367858      0.999121367871
      0.868750000000     -0.000000000013      0.999179946402      0.999179946415
      0.878125000000     -0.000000000012      0.999238524558      0.999238524570
      0.887500000000     -0.000000000011      0.999297102314      0.999297102325
      0.896875000000     -0.000000000010      0.999355679657      0.999355679667
      0.906250000000     -0.000000000009      0.999414256578      0.999414256587
      0.915625000000     -0.000000000008      0.999472833064      0.999472833072
      0.925000000000     -0.000000000007      0.999531409104      0.999531409112
      0.934375000000     -0.000000000006      0.999589984687      0.999589984694
      0.943750000000     -0.000000000005      0.999648559801      0.999648559807
      0.953125000000     -0.000000000005      0.999707134435      0.999707134440
      0.962500000000     -0.000000000004      0.999765708577      0.999765708581
      0.971875000000     -0.000000000003      0.999824282216      0.999824282219
      0.981250000000     -0.000000000002      0.999882855341      0.999882855342
      0.990625000000     -0.000000000001      0.999941427939      0.999941427940
      1.000000000000     -0.000000000000      1.000000000000      1.000000000000
