             radius   SpeedofSoundError            Expected              Actual 
      0.100000000000     -0.000000000086      0.994376265207      0.994376265294
      0.109278350515     -0.000000000085      0.994434233430      0.994434233515
      0.118556701031     -0.000000000084      0.994492202179      0.994492202264
      0.127835051546     -0.000000000084      0.994550171444      0.994550171527
      0.137113402062     -0.000000000083      0.994608141213      0.994608141295
      0.146391752577     -0.000000000082      0.994666111475      0.994666111556
      0.155670103093     -0.000000000081      0.994724082219      0.994724082300
      0.164948453608     -0.000000000080      0.994782053434      0.994782053514
      0.174226804124     -0.000000000079      0.994840025110      0.994840025189
      0.183505154639     -0.000000000078      0.994897997234      0.994897997312
      0.192783505155     -0.000000000077      0.994955969796      0.994955969873
      0.202061855670     -0.000000000076      0.995013942785      0.995013942861
      0.211340206186     -0.000000000075      0.995071916190      0.995071916265
      0.220618556701     -0.000000000075      0.995129889999      0.995129890073
      0.229896907216     -0.000000000074      0.995187864202      0.995187864275
      0.239175257732     -0.000000000073      0.995245838787      0.995245838860
      0.248453608247     -0.000000000072      0.995303813743      0.995303813815
      0.257731958763     -0.000000000071      0.995361789060      0.995361789131
      0.267010309278     -0.000000000070      0.995419764726      0.995419764797
      0.276288659794     -0.000000000069      0.995477740731      0.995477740800
      0.285567010309     -0.000000000068      0.995535717062      0.995535717130
      0.294845360825     -0.000000000067      0.995593693709      0.995593693776
      0.304123711340     -0.000000000067      0.995651670661      0.995651670728
      0.313402061856     -0.000000000066      0.995709647907      0.995709647973
      0.322680412371     -0.000000000065      0.995767625435      0.995767625500
      0.331958762887     -0.000000000064      0.995825603236      0.995825603299
      0.341237113402     -0.000000000063      0.995883581296      0.995883581359
      0.350515463918     -0.000000000062      0.995941559606      0.995941559668
      0.359793814433     -0.000000000061      0.995999538155      0.995999538216
      0.369072164948     -0.000000000060      0.996057516930      0.996057516991
      0.378350515464     -0.000000000059      0.996115495922      0.996115495982
      0.387628865979     -0.000000000059      0.996173475119      0.996173475178
      0.396907216495     -0.000000000058      0.996231454511      0.996231454568
      0.406185567010     -0.000000000057      0.996289434084      0.996289434141
      0.415463917526     -0.000000000056      0.996347413830      0.996347413886
      0.424742268041     -0.000000000055      0.996405393737      0.996405393792
      0.434020618557     -0.000000000054      0.996463373793      0.996463373847
      0.443298969072     -0.000000000053      0.996521353988      0.996521354041
      0.452577319588     -0.000000000052      0.996579334310      0.996579334363
      0.461855670103     -0.000000000051      0.996637314749      0.996637314801
      0.471134020619     -0.000000000051      0.996695295293      0.996695295344
      0.480412371134     -0.000000000050      0.996753275932      0.996753275981
      0.489690721649     -0.000000000049      0.996811256653      0.996811256702
      0.498969072165     -0.000000000048      0.996869237447      0.996869237494
      0.508247422680     -0.000000000047      0.996927218301      0.996927218348
      0.517525773196     -0.000000000046      0.996985199205      0.996985199252
      0.526804123711     -0.000000000045      0.997043180149      0.997043180194
      0.536082474227     -0.000000000044      0.997101161120      0.997101161164
      0.545360824742     -0.000000000043      0.997159142107      0.997159142151
      0.554639175258     -0.000000000043      0.997217123100      0.997217123143
      0.563917525773     -0.000000000042      0.997275104088      0.997275104130
      0.573195876289     -0.000000000041      0.997333085059      0.997333085100
      0.582474226804     -0.000000000040      0.997391066002      0.997391066042
      0.591752577320     -0.000000000039      0.997449046906      0.997449046945
      0.601030927835     -0.000000000038      0.997507027761      0.997507027799
      0.610309278351     -0.000000000037      0.997565008555      0.997565008592
      0.619587628866     -0.000000000036      0.997622989276      0.997622989312
      0.628865979381     -0.000000000035      0.997680969914      0.997680969950
      0.638144329897     -0.000000000035      0.997738950458      0.997738950493
      0.647422680412     -0.000000000034      0.997796930897      0.997796930931
      0.656701030928     -0.000000000033      0.997854911219      0.997854911252
      0.665979381443     -0.000000000032      0.997912891414      0.997912891446
      0.675257731959     -0.000000000031      0.997970871471      0.997970871502
      0.684536082474     -0.000000000030      0.998028851377      0.998028851407
      0.693814432990     -0.000000000029      0.998086831123      0.998086831152
      0.703092783505     -0.000000000028      0.998144810697      0.998144810725
      0.712371134021     -0.000000000027      0.998202790088      0.998202790115
      0.721649484536     -0.000000000027      0.998260769285      0.998260769312
      0.730927835052     -0.000000000026      0.998318748277      0.998318748303
      0.740206185567     -0.000000000025      0.998376727053      0.998376727078
      0.749484536082     -0.000000000024      0.998434705601      0.998434705625
      0.758762886598     -0.000000000023      0.998492683911      0.998492683934
      0.768041237113     -0.000000000022      0.998550661972      0.998550661994
      0.777319587629     -0.000000000021      0.998608639772      0.998608639793
      0.786597938144     -0.000000000020      0.998666617301      0.998666617321
      0.795876288660     -0.000000000019      0.998724594546      0.998724594566
      0.805154639175     -0.000000000019      0.998782571498      0.998782571517
      0.814432989691     -0.000000000018      0.998840548146      0.998840548163
      0.823711340206     -0.000000000017      0.998898524477      0.998898524494
      0.832989690722     -0.000000000016      0.998956500481      0.998956500497
      0.842268041237     -0.000000000015      0.999014476147      0.999014476162
      0.851546391753     -0.000000000014      0.999072451464      0.999072451478
      0.860824742268     -0.000000000013      0.999130426421      0.999130426434
      0.870103092784     -0.000000000012      0.999188401006      0.999188401018
      0.879381443299     -0.000000000011      0.999246375209      0.999246375220
      0.888659793814     -0.000000000011      0.999304349018      0.999304349028
      0.897938144330     -0.000000000010      0.999362322422      0.999362322432
      0.907216494845     -0.000000000009      0.999420295411      0.999420295420
      0.916494845361     -0.000000000008      0.999478267974      0.999478267982
      0.925773195876     -0.000000000007      0.999536240098      0.999536240105
      0.935051546392     -0.000000000006      0.999594211773      0.999594211779
      0.944329896907     -0.000000000005      0.999652182989      0.999652182994
      0.953608247423     -0.000000000004      0.999710153733      0.999710153737
      0.962886597938     -0.000000000004      0.999768123995      0.999768123998
      0.972164948454     -0.000000000003      0.999826093764      0.999826093766
      0.981443298969     -0.000000000002      0.999884063028      0.999884063030
      0.990721649485     -0.000000000001      0.999942031777      0.999942031778
      1.000000000000     -0.000000000000      1.000000000000      1.000000000000
