             radius   SpeedofSoundError            Expected              Actual 
      0.100000000000     -0.000000000300      0.994376265207      0.994376265507
      0.117307692308     -0.000000000294      0.994484398663      0.994484398958
      0.134615384615     -0.000000000288      0.994592533918      0.994592534206
      0.151923076923     -0.000000000283      0.994700670899      0.994700671182
      0.169230769231     -0.000000000277      0.994808809536      0.994808809812
      0.186538461538     -0.000000000271      0.994916949755      0.994916950026
      0.203846153846     -0.000000000265      0.995025091485      0.995025091750
      0.221153846154     -0.000000000259      0.995133234654      0.995133234913
      0.238461538462     -0.000000000254      0.995241379190      0.995241379444
      0.255769230769     -0.000000000248      0.995349525022      0.995349525269
      0.273076923077     -0.000000000242      0.995457672076      0.995457672318
      0.290384615385     -0.000000000236      0.995565820282      0.995565820518
      0.307692307692     -0.000000000230      0.995673969568      0.995673969798
      0.325000000000     -0.000000000225      0.995782119860      0.995782120085
      0.342307692308     -0.000000000219      0.995890271089      0.995890271308
      0.359615384615     -0.000000000213      0.995998423180      0.995998423394
      0.376923076923     -0.000000000207      0.996106576064      0.996106576271
      0.394230769231     -0.000000000201      0.996214729667      0.996214729868
      0.411538461538     -0.000000000196      0.996322883918      0.996322884113
      0.428846153846     -0.000000000190      0.996431038744      0.996431038934
      0.446153846154     -0.000000000184      0.996539194074      0.996539194258
      0.463461538462     -0.000000000178      0.996647349836      0.996647350014
      0.480769230769     -0.000000000173      0.996755505958      0.996755506130
      0.498076923077     -0.000000000167      0.996863662367      0.996863662534
      0.515384615385     -0.000000000161      0.996971818993      0.996971819154
      0.532692307692     -0.000000000155      0.997079975762      0.997079975918
      0.550000000000     -0.000000000150      0.997188132604      0.997188132753
      0.567307692308     -0.000000000144      0.997296289445      0.997296289589
      0.584615384615     -0.000000000138      0.997404446215      0.997404446353
      0.601923076923     -0.000000000132      0.997512602840      0.997512602972
      0.619230769231     -0.000000000126      0.997620759250      0.997620759376
      0.636538461538     -0.000000000121      0.997728915371      0.997728915492
      0.653846153846     -0.000000000115      0.997837071133      0.997837071248
      0.671153846154     -0.000000000109      0.997945226464      0.997945226573
      0.688461538462     -0.000000000103      0.998053381290      0.998053381393
      0.705769230769     -0.000000000098      0.998161535541      0.998161535638
      0.723076923077     -0.000000000092      0.998269689144      0.998269689235
      0.740384615385     -0.000000000086      0.998377842027      0.998377842113
      0.757692307692     -0.000000000080      0.998485994119      0.998485994199
      0.775000000000     -0.000000000075      0.998594145347      0.998594145422
      0.792307692308     -0.000000000069      0.998702295640      0.998702295709
      0.809615384615     -0.000000000063      0.998810444925      0.998810444988
      0.826923076923     -0.000000000057      0.998918593131      0.998918593189
      0.844230769231     -0.000000000052      0.999026740186      0.999026740238
      0.861538461538     -0.000000000046      0.999134886017      0.999134886063
      0.878846153846     -0.000000000040      0.999243030554      0.999243030594
      0.896153846154     -0.000000000034      0.999351173723      0.999351173757
      0.913461538462     -0.000000000029      0.999459315453      0.999459315481
      0.930769230769     -0.000000000023      0.999567455672      0.999567455695
      0.948076923077     -0.000000000017      0.999675594308      0.999675594325
      0.965384615385     -0.000000000011      0.999783731289      0.999783731301
      0.982692307692     -0.000000000006      0.999891866544      0.999891866550
      1.000000000000     -0.000000000000      1.000000000000      1.000000000000
