             radius   SpeedofSoundError            Expected              Actual 
      0.100000000000     -0.000000002169      0.996251124595      0.996251126764
      0.156250000000     -0.000000002033      0.996485301678      0.996485303711
      0.212500000000     -0.000000001897      0.996719503454      0.996719505352
      0.268750000000     -0.000000001761      0.996953728281      0.996953730042
      0.325000000000     -0.000000001626      0.997187974513      0.997187976139
      0.381250000000     -0.000000001490      0.997422240508      0.997422241998
      0.437500000000     -0.000000001354      0.997656524620      0.997656525974
      0.493750000000     -0.000000001219      0.997890825203      0.997890826422
      0.550000000000     -0.000000001083      0.998125140612      0.998125141696
      0.606250000000     -0.000000000948      0.998359469201      0.998359470149
      0.662500000000     -0.000000000812      0.998593809323      0.998593810135
      0.718750000000     -0.000000000677      0.998828159331      0.998828160008
      0.775000000000     -0.000000000541      0.999062517578      0.999062518119
      0.831250000000     -0.000000000406      0.999296882416      0.999296882821
      0.887500000000     -0.000000000270      0.999531252197      0.999531252468
      0.943750000000     -0.000000000135      0.999765625275      0.999765625410
      1.000000000000      0.000000000000      1.000000000000      1.000000000000
