             radius   SpeedofSoundError            Expected              Actual 
      0.100000000000     -0.000000000533      0.994376265207      0.994376265741
      0.123076923077     -0.000000000519      0.994520443552      0.994520444071
      0.146153846154     -0.000000000506      0.994664625052      0.994664625557
      0.169230769231     -0.000000000492      0.994808809536      0.994808810028
      0.192307692308     -0.000000000478      0.994952996834      0.994952997312
      0.215384615385     -0.000000000464      0.995097186775      0.995097187240
      0.238461538462     -0.000000000451      0.995241379190      0.995241379641
      0.261538461538     -0.000000000437      0.995385573907      0.995385574344
      0.284615384615     -0.000000000423      0.995529770757      0.995529771180
      0.307692307692     -0.000000000410      0.995673969568      0.995673969977
      0.330769230769     -0.000000000396      0.995818170169      0.995818170565
      0.353846153846     -0.000000000382      0.995962372392      0.995962372774
      0.376923076923     -0.000000000368      0.996106576064      0.996106576432
      0.400000000000     -0.000000000355      0.996250781015      0.996250781370
      0.423076923077     -0.000000000341      0.996394987076      0.996394987417
      0.446153846154     -0.000000000327      0.996539194074      0.996539194401
      0.469230769231     -0.000000000314      0.996683401840      0.996683402154
      0.492307692308     -0.000000000300      0.996827610203      0.996827610503
      0.515384615385     -0.000000000286      0.996971818993      0.996971819279
      0.538461538462     -0.000000000273      0.997116028038      0.997116028311
      0.561538461538     -0.000000000259      0.997260237169      0.997260237428
      0.584615384615     -0.000000000245      0.997404446215      0.997404446460
      0.607692307692     -0.000000000232      0.997548655004      0.997548655236
      0.630769230769     -0.000000000218      0.997692863367      0.997692863585
      0.653846153846     -0.000000000204      0.997837071133      0.997837071338
      0.676923076923     -0.000000000191      0.997981278132      0.997981278322
      0.700000000000     -0.000000000177      0.998125484192      0.998125484369
      0.723076923077     -0.000000000163      0.998269689144      0.998269689307
      0.746153846154     -0.000000000150      0.998413892816      0.998413892966
      0.769230769231     -0.000000000136      0.998558095038      0.998558095174
      0.792307692308     -0.000000000122      0.998702295640      0.998702295762
      0.815384615385     -0.000000000109      0.998846494451      0.998846494560
      0.838461538462     -0.000000000095      0.998990691300      0.998990691395
      0.861538461538     -0.000000000082      0.999134886017      0.999134886099
      0.884615384615     -0.000000000068      0.999279078432      0.999279078500
      0.907692307692     -0.000000000054      0.999423268374      0.999423268428
      0.930769230769     -0.000000000041      0.999567455672      0.999567455713
      0.953846153846     -0.000000000027      0.999711640156      0.999711640183
      0.976923076923     -0.000000000014      0.999855821655      0.999855821669
      1.000000000000     -0.000000000000      1.000000000000      1.000000000000
