             radius   SpeedofSoundError            Expected              Actual 
      0.100000000000     -0.000000000278      0.994376265207      0.994376265486
      0.116666666667     -0.000000000273      0.994480393688      0.994480393961
      0.133333333333     -0.000000000268      0.994584523839      0.994584524107
      0.150000000000     -0.000000000263      0.994688655596      0.994688655859
      0.166666666667     -0.000000000257      0.994792788895      0.994792789153
      0.183333333333     -0.000000000252      0.994896923672      0.994896923924
      0.200000000000     -0.000000000247      0.995001059862      0.995001060109
      0.216666666667     -0.000000000242      0.995105197402      0.995105197644
      0.233333333333     -0.000000000237      0.995209336226      0.995209336463
      0.250000000000     -0.000000000232      0.995313476272      0.995313476503
      0.266666666667     -0.000000000226      0.995417617473      0.995417617700
      0.283333333333     -0.000000000221      0.995521759768      0.995521759989
      0.300000000000     -0.000000000216      0.995625903090      0.995625903306
      0.316666666667     -0.000000000211      0.995730047376      0.995730047587
      0.333333333333     -0.000000000206      0.995834192562      0.995834192767
      0.350000000000     -0.000000000201      0.995938338583      0.995938338783
      0.366666666667     -0.000000000195      0.996042485375      0.996042485570
      0.383333333333     -0.000000000190      0.996146632874      0.996146633064
      0.400000000000     -0.000000000185      0.996250781015      0.996250781200
      0.416666666667     -0.000000000180      0.996354929735      0.996354929915
      0.433333333333     -0.000000000175      0.996459078969      0.996459079144
      0.450000000000     -0.000000000170      0.996563228653      0.996563228823
      0.466666666667     -0.000000000164      0.996667378722      0.996667378887
      0.483333333333     -0.000000000159      0.996771529113      0.996771529272
      0.500000000000     -0.000000000154      0.996875679761      0.996875679915
      0.516666666667     -0.000000000149      0.996979830601      0.996979830750
      0.533333333333     -0.000000000144      0.997083981570      0.997083981714
      0.550000000000     -0.000000000139      0.997188132604      0.997188132742
      0.566666666667     -0.000000000133      0.997292283637      0.997292283771
      0.583333333333     -0.000000000128      0.997396434606      0.997396434734
      0.600000000000     -0.000000000123      0.997500585447      0.997500585570
      0.616666666667     -0.000000000118      0.997604736094      0.997604736212
      0.633333333333     -0.000000000113      0.997708886485      0.997708886598
      0.650000000000     -0.000000000108      0.997813036554      0.997813036662
      0.666666666667     -0.000000000103      0.997917186238      0.997917186341
      0.683333333333     -0.000000000097      0.998021335472      0.998021335570
      0.700000000000     -0.000000000092      0.998125484192      0.998125484284
      0.716666666667     -0.000000000087      0.998229632334      0.998229632421
      0.733333333333     -0.000000000082      0.998333779833      0.998333779915
      0.750000000000     -0.000000000077      0.998437926625      0.998437926702
      0.766666666667     -0.000000000072      0.998542072646      0.998542072718
      0.783333333333     -0.000000000067      0.998646217832      0.998646217898
      0.800000000000     -0.000000000062      0.998750362118      0.998750362179
      0.816666666667     -0.000000000056      0.998854505440      0.998854505496
      0.833333333333     -0.000000000051      0.998958647734      0.998958647785
      0.850000000000     -0.000000000046      0.999062788936      0.999062788982
      0.866666666667     -0.000000000041      0.999166928981      0.999166929022
      0.883333333333     -0.000000000036      0.999271067806      0.999271067842
      0.900000000000     -0.000000000031      0.999375205345      0.999375205376
      0.916666666667     -0.000000000026      0.999479341535      0.999479341561
      0.933333333333     -0.000000000020      0.999583476312      0.999583476333
      0.950000000000     -0.000000000015      0.999687609611      0.999687609627
      0.966666666667     -0.000000000010      0.999791741368      0.999791741379
      0.983333333333     -0.000000000005      0.999895871519      0.999895871524
      1.000000000000     -0.000000000000      1.000000000000      1.000000000000
