radius      S_expected         S_actual            Error 
  0.100000000000 -0.000000000000  0.000000000000  0.066666672758
  0.107031250000 -0.081341892702 -0.081274895801  0.002738729494
  0.114062500000 -0.268878832331 -0.268697109099  0.005338745048
  0.121093750000 -0.495059703296 -0.494120597590  0.007857904517
  0.128125000000 -0.705103488355 -0.704245228819  0.010177816020
  0.135156250000 -0.871186929060 -0.870721728456  0.012367551036
  0.142187500000 -0.988354723739 -0.988209655522  0.014456053645
  0.149218750000 -1.063813319497 -1.063831404920  0.016432919749
  0.156250000000 -1.108309864004 -1.108381995108  0.018293492887
  0.163281250000 -1.131723245414 -1.131797850545  0.020038676205
  0.170312500000 -1.141644970042 -1.141704906782  0.021670514162
  0.177343750000 -1.143387409331 -1.143430749532  0.023191082384
  0.184375000000 -1.140458598119 -1.140488468974  0.024602426214
  0.191406250000 -1.135074944512 -1.135095309121  0.025906595257
  0.198437500000 -1.128571148322 -1.128585457316  0.027105652952
  0.205468750000 -1.121686966580 -1.121697970285  0.028201674969
  0.212500000000 -1.114748395073 -1.114758353641  0.029196746486
  0.219531250000 -1.107765323190 -1.107776326897  0.030092960435
  0.226562500000 -1.100460842129 -1.100475151127  0.030892416479
  0.233593750000 -1.092237478615 -1.092257843229  0.031597220129
  0.240625000000 -1.082075298367 -1.082105169231  0.032209481242
  0.247656250000 -1.068347244605 -1.068390584822  0.032731310232
  0.254687500000 -1.048531106196 -1.048591042962  0.033164807412
  0.261718750000 -1.018804148177 -1.018878753350  0.033512034185
  0.268750000000 -0.973549265390 -0.973621396559  0.033774951311
  0.275781250000 -0.904932656287 -0.904950741815  0.033955369765
  0.282812500000 -0.803023386246 -0.802878318197  0.034055234629
  0.289843750000 -0.657497913852 -0.657032713517  0.034077527717
  0.296875000000 -0.462619220445 -0.461760961339  0.034023896635
  0.303906250000 -0.226756420081 -0.225817315064  0.033881244710
  0.310937500000  0.016361973642  0.016543695775  0.033635042435
  0.317968750000  0.206066291153  0.204829564105  0.033331114142
  0.325000000000  0.277291420912  0.275283418374  0.032957690116
  0.332031250000  0.201039176286  0.199802449238  0.032445862629
  0.339062500000  0.006038147338  0.006219869471  0.031908129025
  0.346093750000 -0.242847558649 -0.241908453632  0.031372356760
  0.353125000000 -0.485101251092 -0.484242991986  0.030781424173
  0.360156250000 -0.687235804961 -0.686770604626  0.030139053766
  0.367187500000 -0.841460939167 -0.841315871118  0.029453781511
  0.374218750000 -0.954798477869 -0.954816563398  0.028722806696
  0.381250000000 -1.039944378075 -1.040016509245  0.027944513481
  0.388281250000 -1.110003167125 -1.110077772297  0.027119895973
  0.395312500000 -1.174256411229 -1.174316347994  0.026250819494
  0.402343750000 -1.233699092376 -1.233742432593  0.025339305139
  0.409375000000 -1.282398568695 -1.282428439560  0.024387398042
  0.416406250000 -1.316390286002 -1.316410650616  0.023397153249
  0.423437500000 -1.337671125834 -1.337685434833  0.022370630453
  0.430468750000 -1.350567214708 -1.350578218416  0.021309888576
  0.437500000000 -1.358501677084 -1.358511635652  0.020216981841
  0.444531250000 -1.363373578318 -1.363384582026  0.019093957535
  0.451562500000 -1.365923453507 -1.365937762505  0.017942855026
  0.458593750000 -1.366088555094 -1.366108919708  0.016765705735
  0.465625000000 -1.363140805938 -1.363170676802  0.015564534016
  0.472656250000 -1.355626205286 -1.355669545503  0.014341358265
  0.479687500000 -1.341136863481 -1.341196800247  0.013098187015
  0.486718750000 -1.315934065393 -1.316008670566  0.011836989313
  0.493750000000 -1.274467896147 -1.274540027317  0.010559607042
  0.500781250000 -1.208961425269 -1.208979510797  0.009267810028
  0.507812500000 -1.109533540939 -1.109388472890  0.007965250038
  0.514843750000 -0.965905204916 -0.965440004581  0.006665853756
  0.521875000000 -0.772379505282 -0.771521246175  0.005395326885
  0.528906250000 -0.537361638310 -0.536422533292  0.004105814405
  0.535937500000 -0.294611973196 -0.294430251063  0.002669415536
  0.542968750000 -0.104826819820 -0.106063546869  0.001815597849
  0.550000000000 -0.033090496319 -0.035098498857  0.002008002538
  0.557031250000 -0.108408416954 -0.109645144002  0.001809532613
  0.564062500000 -0.302037464559 -0.301855742426  0.002639623469
  0.571093750000 -0.549055556529 -0.548116451511  0.004048774793
  0.578125000000 -0.788797370490 -0.787939111384  0.005305868866
  0.585156250000 -0.987437943672 -0.986972743337  0.006541589927
  0.592187500000 -1.136466995394 -1.136321927346  0.007804948143
  0.599218750000 -1.241475706717 -1.241493792246  0.009069712484
  0.606250000000 -1.312655063591 -1.312727194761  0.010321555701
  0.613281250000 -1.359820257966 -1.359894863139  0.011556702443
  0.620312500000 -1.390703711605 -1.390763648371  0.012773379275
  0.627343750000 -1.410832503686 -1.410875843903  0.013969796116
  0.634375000000 -1.423950474651 -1.423980345516  0.015144070065
  0.641406250000 -1.432518035445 -1.432538400060  0.016294302602
  0.648437500000 -1.438135692030 -1.438150001029  0.017418602688
  0.655468750000 -1.441874642725 -1.441885646433  0.018515086750
  0.662500000000 -1.444551826599 -1.444561785167  0.019581875301
  0.669531250000 -1.447006130747 -1.447017134455  0.020617090651
  0.676562500000 -1.450407741255 -1.450422050254  0.021618855771
  0.683593750000 -1.456438584438 -1.456458949052  0.022585293646
  0.690625000000 -1.466579647657 -1.466609518522  0.023514526362
  0.697656250000 -1.479338672858 -1.479382013075  0.024404672175
  0.704687500000 -1.487220936087 -1.487280872852  0.025253835593
  0.711718750000 -1.479311540338 -1.479386145511  0.026060078290
  0.718750000000 -1.446999589190 -1.447071720360  0.026821357239
  0.725781250000 -1.383948759230 -1.383966844758  0.027535494234
  0.732812500000 -1.282866540931 -1.282721472883  0.028200562740
  0.739843750000 -1.135383376969 -1.134918176634  0.028815967136
  0.746875000000 -0.936878430898 -0.936020171792  0.029379575086
  0.753906250000 -0.696298721325 -0.695359616308  0.029872554722
  0.760937500000 -0.447664712856 -0.447482990723  0.030275414815
  0.767968750000 -0.251795068315 -0.253031795363  0.030634387700
  0.775000000000 -0.173830807457 -0.175838809995  0.030928557899
  0.782031250000 -0.242803118970 -0.244039846018  0.031079180930
  0.789062500000 -0.429980759956 -0.429799037823  0.031202595237
  0.796093750000 -0.670448084485 -0.669508979467  0.031323344852
  0.803125000000 -0.903544560051 -0.902686300944  0.031380079426
  0.810156250000 -1.095449591590 -1.094984391254  0.031373544808
  0.817187500000 -1.237656953651 -1.237511885602  0.031308100793
  0.824218750000 -1.335761372962 -1.335779458490  0.031176878085
  0.831250000000 -1.399956606545 -1.400028737715  0.030974415375
  0.838281250000 -1.440059408940 -1.440134014112  0.030697865097
  0.845312500000 -1.463801629337 -1.463861566103  0.030345252125
  0.852343750000 -1.476705569353 -1.476748909570  0.029914783940
  0.859375000000 -1.482501522958 -1.482531393822  0.029404722241
  0.866406250000 -1.483617654324 -1.483638018938  0.028813365273
  0.873437500000 -1.481582148644 -1.481596457641  0.028139039964
  0.880468750000 -1.477308538162 -1.477319541869  0.027380095433
  0.887500000000 -1.471277930922 -1.471287889489  0.026534898703
  0.894531250000 -1.463638560406 -1.463649564111  0.025601832280
  0.901562500000 -1.454237182715 -1.454251491709  0.024579292863
  0.908593750000 -1.442587396684 -1.442607761292  0.023465690657
  0.915625000000 -1.427769889423 -1.427799760278  0.022259448937
  0.922656250000 -1.408250267526 -1.408293607727  0.020959002994
  0.929687500000 -1.381594544130 -1.381654480869  0.019562794350
  0.936718750000 -1.344069757185 -1.344144362316  0.018069246216
  0.943750000000 -1.290161634468 -1.290233765572  0.016476700437
  0.950781250000 -1.212175685005 -1.212193770428  0.014783445501
  0.957812500000 -1.100404909223 -1.100259841006  0.012988898030
  0.964843750000 -0.944930437130 -0.944465236526  0.011098497758
  0.971875000000 -0.740775263867 -0.739917004330  0.009124072362
  0.978906250000 -0.497665839295 -0.496726733589  0.007034168406
  0.985937500000 -0.251339956146 -0.251158232913  0.004754636044
  0.992968750000 -0.064162753836 -0.064095756935  0.002426746048
  1.000000000000 -0.000000000000  0.000000000000  0.100000001490
