radius      S_expected         S_actual            Error 
  0.100000000000  0.000000000000  0.000000000000  0.070721850433
  0.128125000000  0.003832908483  0.007684793918  0.011045398303
  0.156250000000 -0.094901636396 -0.091056229711  0.019035827895
  0.184375000000 -0.246740849886 -0.242892197264  0.025330282683
  0.212500000000 -0.425958787102 -0.422101055955  0.029933124338
  0.240625000000 -0.617631867539 -0.613762187572  0.032956544008
  0.268750000000 -0.812394777278 -0.808511698463  0.034528934050
  0.296875000000 -1.004006158858 -1.000108372536  0.034784197064
  0.325000000000 -1.188098892230 -1.184184837521  0.033859694179
  0.353125000000 -1.361488531016 -1.357556942494  0.031895226518
  0.381250000000 -1.521770913359 -1.517821805249  0.029032338105
  0.409375000000 -1.667081306812 -1.663116648633  0.025414325863
  0.437500000000 -1.795947025209 -1.791970573068  0.021188047664
  0.465625000000 -1.907192834984 -1.903209109609  0.016511037569
  0.493750000000 -1.999873906385 -1.995886838833  0.011579588098
  0.521875000000 -2.073222407747 -2.069234393805  0.006783541599
  0.550000000000 -2.126602834291 -2.122614719447  0.003988114844
  0.578125000000 -2.159476939629 -2.155488925687  0.006764174725
  0.606250000000 -2.171380725430 -2.167393657879  0.011490698065
  0.634375000000 -2.161913781711 -2.157930056336  0.016308307862
  0.662500000000 -2.130737429230 -2.126760977088  0.020833402966
  0.690625000000 -2.077575332299 -2.073610674119  0.024877579248
  0.718750000000 -2.002210447695 -1.998261339584  0.028293282116
  0.746875000000 -1.904475410267 -1.900543821745  0.030945711213
  0.775000000000 -1.784237936778 -1.780323882069  0.032705571451
  0.803125000000 -1.641385994154 -1.637488207832  0.033447059620
  0.831250000000 -1.475817509833 -1.471934431018  0.033047673035
  0.859375000000 -1.287436313440 -1.283566633473  0.031389066843
  0.887500000000 -1.076151654675 -1.072293923528  0.028359412663
  0.915625000000 -0.841875688945 -0.838027036324  0.023859664806
  0.943750000000 -0.584513655740 -0.580668249055  0.017823478002
  0.971875000000 -0.303945142678 -0.300093257244  0.010324720488
  1.000000000000  0.000000000000  0.000000000000  0.100000001490
