radius      S_expected         S_actual            Error 
  0.100000000000 -0.000000000000  0.000000000000  0.048312557153
  0.107031250000 -0.081341892702 -0.081274895801  0.002447760576
  0.114062500000 -0.268878832331 -0.268697109099  0.004760756150
  0.121093750000 -0.495059703296 -0.494120597590  0.007008982746
  0.128125000000 -0.705103488355 -0.704245228819  0.009062505213
  0.135156250000 -0.871186929060 -0.870721728456  0.010999256627
  0.142187500000 -0.988354723739 -0.988209655522  0.012851339532
  0.149218750000 -1.063813319497 -1.063831404920  0.014606369609
  0.156250000000 -1.108309864004 -1.108381995108  0.016258424077
  0.163281250000 -1.131723245414 -1.131797850545  0.017807906442
  0.170312500000 -1.141644970042 -1.141704906782  0.019256564403
  0.177343750000 -1.143387409331 -1.143430749532  0.020606218497
  0.184375000000 -1.140458598119 -1.140488468974  0.021858676182
  0.191406250000 -1.135074944512 -1.135095309121  0.023015760337
  0.198437500000 -1.128571148322 -1.128585457316  0.024079314093
  0.205468750000 -1.121686966580 -1.121697970285  0.025051195786
  0.212500000000 -1.114748395073 -1.114758353641  0.025933274103
  0.219531250000 -1.107765323190 -1.107776326897  0.026727425069
  0.226562500000 -1.100460842129 -1.100475151127  0.027435530106
  0.233593750000 -1.092237478615 -1.092257843229  0.028059474097
  0.240625000000 -1.082075298367 -1.082105169231  0.028601142029
  0.247656250000 -1.068347244605 -1.068390584822  0.029062411253
  0.254687500000 -1.048531106196 -1.048591042962  0.029445131990
  0.261718750000 -1.018804148177 -1.018878753350  0.029751078555
  0.268750000000 -0.973549265390 -0.973621396559  0.029981844464
  0.275781250000 -0.904932656287 -0.904950741815  0.030138711223
  0.282812500000 -0.803023386246 -0.802878318197  0.030222809000
  0.289843750000 -0.657497913852 -0.657032713517  0.030235814854
  0.296875000000 -0.462619220445 -0.461760961339  0.030176705473
  0.303906250000 -0.226756420081 -0.225817315064  0.030025846682
  0.310937500000  0.016361973642  0.016543695775  0.029759832035
  0.317968750000  0.206066291153  0.204829564105  0.029424706674
  0.325000000000  0.277291420912  0.275283418374  0.029011427644
  0.332031250000  0.201039176286  0.199802449238  0.028458872766
  0.339062500000  0.006038147338  0.006219869471  0.027911277229
  0.346093750000 -0.242847558649 -0.241908453632  0.027403353758
  0.353125000000 -0.485101251092 -0.484242991986  0.026863252234
  0.360156250000 -0.687235804961 -0.686770604626  0.026288005946
  0.367187500000 -0.841460939167 -0.841315871118  0.025682547061
  0.374218750000 -0.954798477869 -0.954816563398  0.025040829642
  0.381250000000 -1.039944378075 -1.040016509245  0.024359330142
  0.388281250000 -1.110003167125 -1.110077772297  0.023638106335
  0.395312500000 -1.174256411229 -1.174316347994  0.022878494761
  0.402343750000 -1.233699092376 -1.233742432593  0.022082139986
  0.409375000000 -1.282398568695 -1.282428439560  0.021250773625
  0.416406250000 -1.316390286002 -1.316410650616  0.020386166328
  0.423437500000 -1.337671125834 -1.337685434833  0.019490107406
  0.430468750000 -1.350567214708 -1.350578218416  0.018564392222
  0.437500000000 -1.358501677084 -1.358511635652  0.017610814827
  0.444531250000 -1.363373578318 -1.363384582026  0.016631164102
  0.451562500000 -1.365923453507 -1.365937762505  0.015627221975
  0.458593750000 -1.366088555094 -1.366108919708  0.014600762915
  0.465625000000 -1.363140805938 -1.363170676802  0.013553554360
  0.472656250000 -1.355626205286 -1.355669545503  0.012487357030
  0.479687500000 -1.341136863481 -1.341196800247  0.011403918697
  0.486718750000 -1.315934065393 -1.316008670566  0.010304937062
  0.493750000000 -1.274467896147 -1.274540027317  0.009191953736
  0.500781250000 -1.208961425269 -1.208979510797  0.008066409314
  0.507812500000 -1.109533540939 -1.109388472890  0.006931878398
  0.514843750000 -0.965905204916 -0.965440004581  0.005803707747
  0.521875000000 -0.772379505282 -0.771521246175  0.004710682160
  0.528906250000 -0.537361638310 -0.536422533292  0.003597258797
  0.535937500000 -0.294611973196 -0.294430251063  0.002317169140
  0.542968750000 -0.104826819820 -0.106063546869  0.001688753578
  0.550000000000 -0.033090496319 -0.035098498857  0.002008002538
  0.557031250000 -0.108408416954 -0.109645144002  0.001678513950
  0.564062500000 -0.302037464559 -0.301855742426  0.002263618628
  0.571093750000 -0.549055556529 -0.548116451511  0.003497223210
  0.578125000000 -0.788797370490 -0.787939111384  0.004556089742
  0.585156250000 -0.987437943672 -0.986972743337  0.005592604826
  0.592187500000 -1.136466995394 -1.136321927346  0.006664901673
  0.599218750000 -1.241475706717 -1.241493792246  0.007742966110
  0.606250000000 -1.312655063591 -1.312727194761  0.008810525454
  0.613281250000 -1.359820257966 -1.359894863139  0.009863684013
  0.620312500000 -1.390703711605 -1.390763648371  0.010900920410
  0.627343750000 -1.410832503686 -1.410875843903  0.011920713736
  0.634375000000 -1.423950474651 -1.423980345516  0.012921446429
  0.641406250000 -1.432518035445 -1.432538400060  0.013901489685
  0.648437500000 -1.438135692030 -1.438150001029  0.014859227590
  0.655468750000 -1.441874642725 -1.441885646433  0.015793055459
  0.662500000000 -1.444551826599 -1.444561785167  0.016701374952
  0.669531250000 -1.447006130747 -1.447017134455  0.017582590808
  0.676562500000 -1.450407741255 -1.450422050254  0.018435108992
  0.683593750000 -1.456438584438 -1.456458949052  0.019257335202
  0.690625000000 -1.466579647657 -1.466609518522  0.020047672413
  0.697656250000 -1.479338672858 -1.479382013075  0.020804514502
  0.704687500000 -1.487220936087 -1.487280872852  0.021526228210
  0.711718750000 -1.479311540338 -1.479386145511  0.022211104878
  0.718750000000 -1.446999589190 -1.447071720360  0.022857256757
  0.725781250000 -1.383948759230 -1.383966844758  0.023462513232
  0.732812500000 -1.282866540931 -1.282721472883  0.024024729105
  0.739843750000 -1.135383376969 -1.134918176634  0.024542752426
  0.746875000000 -0.936878430898 -0.936020171792  0.025012500745
  0.753906250000 -0.696298721325 -0.695359616308  0.025408332140
  0.760937500000 -0.447664712856 -0.447482990723  0.025701515915
  0.767968750000 -0.251795068315 -0.253031795363  0.025941381493
  0.775000000000 -0.173830807457 -0.175838809995  0.026107229487
  0.782031250000 -0.242803118970 -0.244039846018  0.026122347988
  0.789062500000 -0.429980759956 -0.429799037823  0.026141858659
  0.796093750000 -0.670448084485 -0.669508979467  0.026200249319
  0.803125000000 -0.903544560051 -0.902686300944  0.026220116452
  0.810156250000 -1.095449591590 -1.094984391254  0.026196992979
  0.817187500000 -1.237656953651 -1.237511885602  0.026132738818
  0.824218750000 -1.335761372962 -1.335779458490  0.026017597696
  0.831250000000 -1.399956606545 -1.400028737715  0.025844591022
  0.838281250000 -1.440059408940 -1.440134014112  0.025610436393
  0.845312500000 -1.463801629337 -1.463861566103  0.025313169020
  0.852343750000 -1.476705569353 -1.476748909570  0.024951168821
  0.859375000000 -1.482501522958 -1.482531393822  0.024522936746
  0.866406250000 -1.483617654324 -1.483638018938  0.024027040986
  0.873437500000 -1.481582148644 -1.481596457641  0.023462092472
  0.880468750000 -1.477308538162 -1.477319541869  0.022826730148
  0.887500000000 -1.471277930922 -1.471287889489  0.022119612622
  0.894531250000 -1.463638560406 -1.463649564111  0.021339413764
  0.901562500000 -1.454237182715 -1.454251491709  0.020484820357
  0.908593750000 -1.442587396684 -1.442607761292  0.019554530678
  0.915625000000 -1.427769889423 -1.427799760278  0.018547253182
  0.922656250000 -1.408250267526 -1.408293607727  0.017461703823
  0.929687500000 -1.381594544130 -1.381654480869  0.016296596393
  0.936718750000 -1.344069757185 -1.344144362316  0.015050607957
  0.943750000000 -1.290161634468 -1.290233765572  0.013722293998
  0.950781250000 -1.212175685005 -1.212193770428  0.012310107103
  0.957812500000 -1.100404909223 -1.100259841006  0.010813795916
  0.964843750000 -0.944930437130 -0.944465236526  0.009240273135
  0.971875000000 -0.740775263867 -0.739917004330  0.007604083914
  0.978906250000 -0.497665839295 -0.496726733589  0.005868022808
  0.985937500000 -0.251339956146 -0.251158232913  0.003944535731
  0.992968750000 -0.064162753836 -0.064095756935  0.002006869537
  1.000000000000 -0.000000000000  0.000000000000  0.034731313991
