radius      S_expected         S_actual            Error 
  0.200000000000  0.001830793520  0.001830758409  1.307493017018
  0.203076923077  0.001826584260  0.001826601741  1.307778056247
  0.206153846154  0.001820131148  0.001820148052  1.308047314208
  0.209230769231  0.001811508869  0.001811525202  1.308306081534
  0.212307692308  0.001800789302  0.001800805071  1.308559486820
  0.215384615385  0.001788041682  0.001788056895  1.308812575581
  0.218461538462  0.001773332747  0.001773347413  1.309070388923
  0.221538461538  0.001756726877  0.001756741005  1.309338042297
  0.224615384615  0.001738286222  0.001738299821  1.309620804691
  0.227692307692  0.001718070818  0.001718083898  1.309924178613
  0.230769230769  0.001696138704  0.001696151275  1.310253981075
  0.233846153846  0.001672546020  0.001672558093  1.310616425611
  0.236923076923  0.001647347108  0.001647358691  1.311018205121
  0.240000000000  0.001620594597  0.001620605702  1.311466574933
  0.243076923077  0.001592339493  0.001592350131  1.311969435046
  0.246153846154  0.001562631256  0.001562641436  1.312535409867
  0.249230769231  0.001531517872  0.001531527605  1.313173923036
  0.252307692308  0.001499045927  0.001499055222  1.313895263966
  0.255384615385  0.001465260666  0.001465269534  1.314710641633
  0.258461538462  0.001430206061  0.001430214512  1.315632219857
  0.261538461538  0.001393924865  0.001393932909  1.316673126857
  0.264615384615  0.001356458667  0.001356466313  1.317847430333
  0.267692307692  0.001317847941  0.001317855200  1.319170067768
  0.270769230769  0.001278132099  0.001278138980  1.320656720289
  0.273846153846  0.001237349531  0.001237356045  1.322323617452
  0.276923076923  0.001195537654  0.001195543808  1.324187260127
  0.280000000000  0.001152732945  0.001152738749  1.326264049581
  0.283076923077  0.001108970987  0.001108976450  1.328569813487
  0.286153846154  0.001064286499  0.001064291629  1.331119224308
  0.289230769231  0.001018713373  0.001018718180  1.333925112855
  0.292307692308  0.000972284709  0.000972289201  1.336997689972
  0.295384615385  0.000925032840  0.000925037025  1.340343702085
  0.298461538462  0.000876989368  0.000876993254  1.343965561140
  0.301538461538  0.000828185184  0.000828188779  1.347860504749
  0.304615384615  0.000778650501  0.000778653814  1.352019855969
  0.307692307692  0.000728414877  0.000728417915  1.356428461291
  0.310769230769  0.000677507238  0.000677510007  1.361064386979
  0.313846153846  0.000625955899  0.000625958408  1.365898945217
  0.316923076923  0.000573788590  0.000573790845  1.370897101148
  0.320000000000  0.000521032473  0.000521034482  1.376018280356
  0.323076923077  0.000467714163  0.000467715932  1.381217556597
  0.326153846154  0.000413859744  0.000413861280  1.386447157059
  0.329230769231  0.000359494793  0.000359496103  1.391658183864
  0.332307692308  0.000304644390  0.000304645479  1.396802422900
  0.335384615385  0.000249333137  0.000249334012  1.401834099610
  0.338461538462  0.000193585176  0.000193585843  1.406711448313
  0.341538461538  0.000137424199  0.000137424664  1.411397985707
  0.344615384615  0.000080873465  0.000080873734  1.415863415613
  0.347692307692  0.000023955814  0.000023955893  1.420084134279
  0.350769230769 -0.000033306320 -0.000033306427  1.424043346579
  0.353846153846 -0.000090890902 -0.000090891188  1.427730837345
  0.356923076923 -0.000148776274 -0.000148776735  1.431142465423
  0.360000000000 -0.000206941153 -0.000206941784  1.434279459481
  0.363076923077 -0.000265364617 -0.000265365411  1.437147595398
  0.366153846154 -0.000324026090 -0.000324027044  1.439756327472
  0.369230769231 -0.000382905340 -0.000382906449  1.442117932910
  0.372307692308 -0.000441982464 -0.000441983723  1.444246713934
  0.375384615385 -0.000501237878 -0.000501239283  1.446158286764
  0.378461538462 -0.000560652314 -0.000560653859  1.447868973352
  0.381538461538 -0.000620206804 -0.000620208486  1.449395300910
  0.384615384615 -0.000679882678 -0.000679884493  1.450753606228
  0.387692307692 -0.000739661552 -0.000739663495  1.451959736450
  0.390769230769 -0.000799525322 -0.000799527389  1.453028834869
  0.393846153846 -0.000859456157 -0.000859458345  1.453975199008
  0.396923076923 -0.000919436492 -0.000919438796  1.454812198213
  0.400000000000 -0.000979449020 -0.000979451437  1.455552238788
  0.403076923077 -0.001039476687 -0.001039479213  1.456206766021
  0.406153846154 -0.001099502683 -0.001099505315  1.456786293934
  0.409230769231 -0.001159510441 -0.001159513175  1.457300455180
  0.412307692308 -0.001219483626 -0.001219486458  1.457758064968
  0.415384615385 -0.001279406130 -0.001279409058  1.458167194255
  0.418461538462 -0.001339262072 -0.001339265092  1.458535248568
  0.421538461538 -0.001399035785 -0.001399038894  1.458869049835
  0.424615384615 -0.001458711816 -0.001458715010  1.459174919370
  0.427692307692 -0.001518274920 -0.001518278197  1.459458760826
  0.430769230769 -0.001577710054 -0.001577713411  1.459726142413
  0.433846153846 -0.001637002374 -0.001637005808  1.459982378093
  0.436923076923 -0.001696137230 -0.001696140738  1.460232607703
  0.440000000000 -0.001755100162 -0.001755103741  1.460481876221
  0.443076923077 -0.001813876893 -0.001813880541  1.460735212450
  0.446153846154 -0.001872453331 -0.001872457045  1.460997707505
  0.449230769231 -0.001930815559 -0.001930819336  1.461274593466
  0.452307692308 -0.001988949835 -0.001988953674  1.461571322480
  0.455384615385 -0.002046842588 -0.002046846485  1.461893646493
  0.458461538462 -0.002104480411 -0.002104484364  1.462247697540
  0.461538461538 -0.002161850063 -0.002161854070  1.462640068252
  0.464615384615 -0.002218938461 -0.002218942520  1.463077891765
  0.467692307692 -0.002275732681 -0.002275736789  1.463568919710
  0.470769230769 -0.002332219949 -0.002332224104  1.464121596169
  0.473846153846 -0.002388387645 -0.002388391845  1.464745124568
  0.476923076923 -0.002444223295 -0.002444227538  1.465449523266
  0.480000000000 -0.002499714570 -0.002499718854  1.466245664098
  0.483076923077 -0.002554849284 -0.002554853607  1.467145286279
  0.486153846154 -0.002609615388 -0.002609619748  1.468160975879
  0.489230769231 -0.002664000972 -0.002664005367  1.469306098406
  0.492307692308 -0.002717994260 -0.002717998688  1.470594669017
  0.495384615385 -0.002771583606 -0.002771588065  1.472041141469
  0.498461538462 -0.002824757495 -0.002824761984  1.473660093233
  0.501538461538 -0.002877504538 -0.002877509055  1.475465780641
  0.504615384615 -0.002929813471 -0.002929818015  1.477471534789
  0.507692307692 -0.002981673154 -0.002981677722  1.479688967445
  0.510769230769 -0.003033072566 -0.003033077157  1.482126958068
  0.513846153846 -0.003084000803 -0.003084005415  1.484790401816
  0.516923076923 -0.003134447080 -0.003134451712  1.487678720403
  0.520000000000 -0.003184400724 -0.003184405374  1.490784183681
  0.523076923077 -0.003233851177 -0.003233855844  1.494090176936
  0.526153846154 -0.003282787988 -0.003282792670  1.497569699300
  0.529230769231 -0.003331200817 -0.003331205513  1.501184609700
  0.532307692308 -0.003379079431 -0.003379084140  1.504886429194
  0.535384615385 -0.003426413700 -0.003426418421  1.508619740772
  0.538461538462 -0.003473193601 -0.003473198331  1.512329092959
  0.541538461538 -0.003519409210 -0.003519413948  1.515969333156
  0.544615384615 -0.003565050703 -0.003565055449  1.519517173201
  0.547692307692 -0.003610108355 -0.003610113108  1.522979211191
  0.550769230769 -0.003654572540 -0.003654577298  1.526390808712
  0.553846153846 -0.003698433726 -0.003698438487  1.529803509740
  0.556923076923 -0.003741682473 -0.003741687237  1.533265274142
  0.560000000000 -0.003784309438 -0.003784314203  1.536802635412
  0.563076923077 -0.003826305365 -0.003826310131  1.540412464873
  0.566153846154 -0.003867661091 -0.003867665856  1.544064763543
  0.569230769231 -0.003908367540 -0.003908372303  1.547712364283
  0.572307692308 -0.003948415722 -0.003948420483  1.551302032570
  0.575384615385 -0.003987796737 -0.003987801493  1.554783280747
  0.578461538462 -0.004026501764 -0.004026506516  1.558113695986
  0.581538461538 -0.004064522071 -0.004064526817  1.561261189854
  0.584615384615 -0.004101849005 -0.004101853744  1.564204144423
  0.587692307692 -0.004138473994 -0.004138478725  1.566930380469
  0.590769230769 -0.004174388546 -0.004174393270  1.569435611854
  0.593846153846 -0.004209584251 -0.004209588964  1.571721790419
  0.596923076923 -0.004244052771 -0.004244057475  1.573795556104
  0.600000000000 -0.004277785850 -0.004277790543  1.575666888319
  0.603076923077 -0.004310775304 -0.004310779985  1.577347987241
  0.606153846154 -0.004343013026 -0.004343017693  1.578852378776
  0.609230769231 -0.004374490979 -0.004374495633  1.580194220620
  0.612307692308 -0.004405201201 -0.004405205841  1.581387780857
  0.615384615385 -0.004435135803 -0.004435140428  1.582447059842
  0.618461538462 -0.004464286962 -0.004464291571  1.583385528140
  0.621538461538 -0.004492646929 -0.004492651521  1.584215956421
  0.624615384615 -0.004520208020 -0.004520212596  1.584950316772
  0.627692307692 -0.004546962622 -0.004546967179  1.585599738311
  0.630769230769 -0.004572903186 -0.004572907725  1.586174503240
  0.633846153846 -0.004598022231 -0.004598026750  1.586684072245
  0.636923076923 -0.004622312339 -0.004622316839  1.587137130599
  0.640000000000 -0.004645766159 -0.004645770638  1.587541648341
  0.643076923077 -0.004668376401 -0.004668380859  1.587904949568
  0.646153846154 -0.004690135838 -0.004690140274  1.588233787222
  0.649230769231 -0.004711037305 -0.004711041719  1.588534420828
  0.652307692308 -0.004731073699 -0.004731078090  1.588812695469
  0.655384615385 -0.004750237975 -0.004750242342  1.589074120944
  0.658461538462 -0.004768523149 -0.004768527492  1.589323950525
  0.661538461538 -0.004785922295 -0.004785926614  1.589567259130
  0.664615384615 -0.004802428545 -0.004802432839  1.589809020939
  0.667692307692 -0.004818035088 -0.004818039356  1.590054186703
  0.670769230769 -0.004832735170 -0.004832739412  1.590307761053
  0.673846153846 -0.004846522092 -0.004846526307  1.590574880193
  0.676923076923 -0.004859389210 -0.004859393398  1.590860890296
  0.680000000000 -0.004871329934 -0.004871334094  1.591171426863
  0.683076923077 -0.004882337728 -0.004882341861  1.591512495113
  0.686153846154 -0.004892406110 -0.004892410214  1.591890551274
  0.689230769231 -0.004901528648 -0.004901532723  1.592312584285
  0.692307692308 -0.004909698964 -0.004909703010  1.592786196991
  0.695384615385 -0.004916910729 -0.004916914744  1.593319685364
  0.698461538462 -0.004923157664 -0.004923161650  1.593922113557
  0.701538461538 -0.004928433542 -0.004928437497  1.594603381743
  0.704615384615 -0.004932732183 -0.004932736107  1.595374282618
  0.707692307692 -0.004936047457 -0.004936051349  1.596246541259
  0.710769230769 -0.004938373279 -0.004938377140  1.597232831582
  0.713846153846 -0.004939703615 -0.004939707443  1.598346761212
  0.716923076923 -0.004940032474 -0.004940036270  1.599602814970
  0.720000000000 -0.004939353913 -0.004939357676  1.601016245845
  0.723076923077 -0.004937662035 -0.004937665765  1.602602901190
  0.726153846154 -0.004934950986 -0.004934954682  1.604378971502
  0.729230769231 -0.004931214957 -0.004931218619  1.606360649710
  0.732307692308 -0.004926448183 -0.004926451811  1.608563691038
  0.735384615385 -0.004920644943 -0.004920648536  1.611002867573
  0.738461538462 -0.004913799555 -0.004913803114  1.613691318243
  0.741538461538 -0.004905906385 -0.004905909908  1.616639804170
  0.744615384615 -0.004896959834 -0.004896963322  1.619855891353
  0.747692307692 -0.004886954349 -0.004886957801  1.623343096797
  0.750769230769 -0.004875884415 -0.004875887831  1.627100049241
  0.753846153846 -0.004863744557 -0.004863747937  1.631119729749
  0.756923076923 -0.004850529340 -0.004850532683  1.635388867742
  0.760000000000 -0.004836233367 -0.004836236674  1.639887571760
  0.763076923077 -0.004820851282 -0.004820854551  1.644589268404
  0.766153846154 -0.004804377762 -0.004804380995  1.649461005801
  0.769230769231 -0.004786807527 -0.004786810722  1.654464149477
  0.772307692308 -0.004768135329 -0.004768138486  1.659555461048
  0.775384615385 -0.004748355959 -0.004748359079  1.664688508413
  0.778461538462 -0.004727464244 -0.004727467325  1.669815316571
  0.781538461538 -0.004705455045 -0.004705458087  1.674888137757
  0.784615384615 -0.004682323258 -0.004682326262  1.679861203979
  0.787692307692 -0.004658063815 -0.004658066780  1.684692327387
  0.790769230769 -0.004632671680 -0.004632674606  1.689344233616
  0.793846153846 -0.004606141851 -0.004606144738  1.693785546638
  0.796923076923 -0.004578469361 -0.004578472208  1.697991384415
  0.800000000000 -0.004549649273 -0.004549652081  1.701943565879
  0.803076923077 -0.004519676683 -0.004519679451  1.705630465311
  0.806153846154 -0.004488546719 -0.004488549446  1.709046575915
  0.809230769231 -0.004456254539 -0.004456257226  1.712191858566
  0.812307692308 -0.004422795333 -0.004422797980  1.715070954905
  0.815384615385 -0.004388164321 -0.004388166928  1.717692338294
  0.818461538462 -0.004352356753 -0.004352359319  1.720067464560
  0.821538461538 -0.004315367908 -0.004315370433  1.722209969932
  0.824615384615 -0.004277193094 -0.004277195578  1.724134948531
  0.827692307692 -0.004237827647 -0.004237830090  1.725858328112
  0.830769230769 -0.004197266932 -0.004197269334  1.727396351421
  0.833846153846 -0.004155506342 -0.004155508703  1.728765161923
  0.836923076923 -0.004112541297 -0.004112543616  1.729980486807
  0.840000000000 -0.004068367242 -0.004068369519  1.731057406587
  0.843076923077 -0.004022979651 -0.004022981887  1.732010198960
  0.846153846154 -0.003976374023 -0.003976376217  1.732852244285
  0.849230769231 -0.003928545882 -0.003928548034  1.733595980648
  0.852307692308 -0.003879490779 -0.003879492888  1.734252897687
  0.855384615385 -0.003829204286 -0.003829206353  1.734833559790
  0.858461538462 -0.003777682005 -0.003777684029  1.735347650831
  0.861538461538 -0.003724919556 -0.003724921538  1.735804034068
  0.864615384615 -0.003670912587 -0.003670914527  1.736210822213
  0.867692307692 -0.003615656768 -0.003615658664  1.736575453838
  0.870769230769 -0.003559147790 -0.003559149643  1.736904773297
  0.873846153846 -0.003501381368 -0.003501383179  1.737205112174
  0.876923076923 -0.003442353240 -0.003442355008  1.737482370933
  0.880000000000 -0.003382059163 -0.003382060888  1.737742099984
  0.883076923077 -0.003320494917 -0.003320496599  1.737989579758
  0.886153846154 -0.003257656304 -0.003257657942  1.738229899734
  0.889230769231 -0.003193539142 -0.003193540738  1.738468036523
  0.892307692308 -0.003128139275 -0.003128140827  1.738708931299
  0.895384615385 -0.003061452562 -0.003061454070  1.738957566911
  0.898461538462 -0.002993474883 -0.002993476348  1.739219045037
  0.901538461538 -0.002924202139 -0.002924203560  1.739498663676
  0.904615384615 -0.002853630245 -0.002853631623  1.739801995165
  0.907692307692 -0.002781755140 -0.002781756473  1.740134964692
  0.910769230769 -0.002708572775 -0.002708574065  1.740503929001
  0.913846153846 -0.002634079123 -0.002634080369  1.740915754590
  0.916923076923 -0.002558270172 -0.002558271374  1.741377894127
  0.920000000000 -0.002481141928 -0.002481143086  1.741898459142
  0.923076923077 -0.002402690413 -0.002402691526  1.742486286106
  0.926153846154 -0.002322911663 -0.002322912733  1.743150991838
  0.929230769231 -0.002241801735 -0.002241802760  1.743903012699
  0.932307692308 -0.002159356695 -0.002159357676  1.744753620209
  0.935384615385 -0.002075572629 -0.002075573566  1.745714903437
  0.938461538462 -0.001990445636 -0.001990446529  1.746799705845
  0.941538461538 -0.001903971829 -0.001903972677  1.748021501036
  0.944615384615 -0.001816147336 -0.001816148139  1.749394188213
  0.947692307692 -0.001726968297 -0.001726969056  1.750931784053
  0.950769230769 -0.001636430867 -0.001636431582  1.752647983473
  0.953846153846 -0.001544531215 -0.001544531886  1.754555557715
  0.956923076923 -0.001451265520 -0.001451266146  1.756665555416
  0.960000000000 -0.001356629976 -0.001356630557  1.758986272475
  0.963076923077 -0.001260620787 -0.001260621324  1.761521963258
  0.966153846154 -0.001163234170 -0.001163234662  1.764271285362
  0.969230769231 -0.001064466353 -0.001064466801  1.767225514326
  0.972307692308 -0.000964313577 -0.000964313979  1.770366651792
  0.975384615385 -0.000862772090 -0.000862772448  1.773665706569
  0.978461538462 -0.000759838154 -0.000759838467  1.777081677195
  0.981538461538 -0.000655508039 -0.000655508308  1.780562100613
  0.984615384615 -0.000549778028 -0.000549778252  1.784046348526
  0.987692307692 -0.000442644410 -0.000442644589  1.787472845240
  0.990769230769 -0.000334103484 -0.000334103619  1.790790509083
  0.993846153846 -0.000224151561 -0.000224151651  1.793972504676
  0.996923076923 -0.000112784958 -0.000112785003  1.797027271921
  1.000000000000 -0.000000000000 -0.000000000000  1.800000000000
