radius      S_expected         S_actual            Error 
  0.100000000000  0.000000000000  0.000000000000  1.211521735833
  0.101757812500  0.001023750649  0.001023750658  1.218041459182
  0.103515625000  0.002018524477  0.002018524465  1.224409653142
  0.105273437500  0.002985305902  0.002985305885  1.230512101292
  0.107031250000  0.003925027672  0.003925027652  1.236253103072
  0.108789062500  0.004838574479  0.004838574455  1.241560329806
  0.110546875000  0.005726786255  0.005726786228  1.246386695631
  0.112304687500  0.006590461203  0.006590461175  1.250709488418
  0.114062500000  0.007430358569  0.007430358538  1.254527426975
  0.115820312500  0.008247201186  0.008247201154  1.257856488071
  0.117578125000  0.009041677824  0.009041677791  1.260725306208
  0.119335937500  0.009814445346  0.009814445313  1.263170770270
  0.121093750000  0.010566130701  0.010566130667  1.265234212894
  0.122851562500  0.011297332760  0.011297332725  1.266958376735
  0.124609375000  0.012008624017  0.012008623983  1.268385181683
  0.126367187500  0.012700552166  0.012700552132  1.269554216456
  0.128125000000  0.013373641554  0.013373641520  1.270501828670
  0.129882812500  0.014028394537  0.014028394503  1.271260674885
  0.131640625000  0.014665292735  0.014665292701  1.271859601737
  0.133398437500  0.015284798201  0.015284798168  1.272323749640
  0.135156250000  0.015887354508  0.015887354475  1.272674794024
  0.136914062500  0.016473387760  0.016473387727  1.272931261235
  0.138671875000  0.017043307539  0.017043307508  1.273108875037
  0.140429687500  0.017597507787  0.017597507755  1.273220904509
  0.142187500000  0.018136367622  0.018136367592  1.273278495219
  0.143945312500  0.018660252120  0.018660252090  1.273290973539
  0.145703125000  0.019169513025  0.019169512996  1.273266119353
  0.147460937500  0.019664489430  0.019664489401  1.273210406007
  0.149218750000  0.020145508406  0.020145508378  1.273129208502
  0.150976562500  0.020612885600  0.020612885572  1.273026982241
  0.152734375000  0.021066925788  0.021066925761  1.272907415180
  0.154492187500  0.021507923401  0.021507923375  1.272773556513
  0.156250000000  0.021936163019  0.021936162994  1.272627924928
  0.158007812500  0.022351919832  0.022351919807  1.272472599296
  0.159765625000  0.022755460076  0.022755460052  1.272309294378
  0.161523437500  0.023147041447  0.023147041424  1.272139423859
  0.163281250000  0.023526913489  0.023526913466  1.271964152718
  0.165039062500  0.023895317957  0.023895317935  1.271784440640
  0.166796875000  0.024252489166  0.024252489145  1.271601077966
  0.168554687500  0.024598654317  0.024598654296  1.271414715427
  0.170312500000  0.024934033804  0.024934033784  1.271225888700
  0.172070312500  0.025258841509  0.025258841489  1.271035038683
  0.173828125000  0.025573285076  0.025573285057  1.270842528218
  0.175585937500  0.025877566176  0.025877566157  1.270648655881
  0.177343750000  0.026171880753  0.026171880735  1.270453667346
  0.179101562500  0.026456419260  0.026456419243  1.270257764742
  0.180859375000  0.026731366885  0.026731366868  1.270061114366
  0.182617187500  0.026996903758  0.026996903742  1.269863853029
  0.184375000000  0.027253205159  0.027253205143  1.269666093277
  0.186132812500  0.027500441703  0.027500441687  1.269467927694
  0.187890625000  0.027738779527  0.027738779511  1.269269432439
  0.189648437500  0.027968380461  0.027968380446  1.269070670155
  0.191406250000  0.028189402194  0.028189402179  1.268871692363
  0.193164062500  0.028401998429  0.028401998415  1.268672541433
  0.194921875000  0.028606319035  0.028606319022  1.268473252198
  0.196679687500  0.028802510189  0.028802510176  1.268273853284
  0.198437500000  0.028990714509  0.028990714496  1.268074368209
  0.200195312500  0.029171071188  0.029171071175  1.267874816268
  0.201953125000  0.029343716115  0.029343716103  1.267675213280
  0.203710937500  0.029508781994  0.029508781982  1.267475572178
  0.205468750000  0.029666398456  0.029666398445  1.267275903509
  0.207226562500  0.029816692170  0.029816692159  1.267076215828
  0.208984375000  0.029959786940  0.029959786929  1.266876516023
  0.210742187500  0.030095803809  0.030095803799  1.266676809574
  0.212500000000  0.030224861152  0.030224861142  1.266477100760
  0.214257812500  0.030347074764  0.030347074755  1.266277392813
  0.216015625000  0.030462557951  0.030462557941  1.266077688043
  0.217773437500  0.030571421605  0.030571421596  1.265877987921
  0.219531250000  0.030673774292  0.030673774283  1.265678293124
  0.221289062500  0.030769722324  0.030769722315  1.265478603567
  0.223046875000  0.030859369829  0.030859369820  1.265278918384
  0.224804687500  0.030942818826  0.030942818818  1.265079235899
  0.226562500000  0.031020169290  0.031020169282  1.264879553551
  0.228320312500  0.031091519215  0.031091519207  1.264679867795
  0.230078125000  0.031156964677  0.031156964669  1.264480173961
  0.231835937500  0.031216599893  0.031216599885  1.264280466067
  0.233593750000  0.031270517278  0.031270517271  1.264080736591
  0.235351562500  0.031318807502  0.031318807495  1.263880976174
  0.237109375000  0.031361559536  0.031361559530  1.263681173259
  0.238867187500  0.031398860712  0.031398860706  1.263481313647
  0.240625000000  0.031430796764  0.031430796757  1.263281379943
  0.242382812500  0.031457451876  0.031457451870  1.263081350894
  0.244140625000  0.031478908732  0.031478908726  1.262881200567
  0.245898437500  0.031495248553  0.031495248547  1.262680897355
  0.247656250000  0.031506551144  0.031506551138  1.262480402770
  0.249414062500  0.031512894929  0.031512894923  1.262279669963
  0.251171875000  0.031514356995  0.031514356989  1.262078641943
  0.252929687500  0.031511013125  0.031511013120  1.261877249394
  0.254687500000  0.031502937837  0.031502937832  1.261675408037
  0.256445312500  0.031490204418  0.031490204413  1.261473015426
  0.258203125000  0.031472884954  0.031472884949  1.261269947055
  0.259960937500  0.031451050368  0.031451050364  1.261066051644
  0.261718750000  0.031424770448  0.031424770443  1.260861145417
  0.263476562500  0.031394113875  0.031394113870  1.260655005188
  0.265234375000  0.031359148256  0.031359148252  1.260447359976
  0.266992187500  0.031319940151  0.031319940146  1.260237880881
  0.268750000000  0.031276555097  0.031276555093  1.260026168863
  0.270507812500  0.031229057637  0.031229057633  1.259811740007
  0.272265625000  0.031177511347  0.031177511343  1.259594007799
  0.274023437500  0.031121978853  0.031121978850  1.259372261851
  0.275781250000  0.031062521865  0.031062521861  1.259145642442
  0.277539062500  0.030999201189  0.030999201185  1.258913110159
  0.279296875000  0.030932076757  0.030932076754  1.258673409853
  0.281054687500  0.030861207646  0.030861207642  1.258425028081
  0.282812500000  0.030786652095  0.030786652092  1.258166143212
  0.284570312500  0.030708467531  0.030708467528  1.257894567430
  0.286328125000  0.030626710584  0.030626710581  1.257607680104
  0.288085937500  0.030541437106  0.030541437103  1.257302352321
  0.289843750000  0.030452702192  0.030452702189  1.256974863107
  0.291601562500  0.030360560192  0.030360560189  1.256620808859
  0.293359375000  0.030265064735  0.030265064732  1.256235009139
  0.295117187500  0.030166268739  0.030166268736  1.255811414280
  0.296875000000  0.030064224431  0.030064224429  1.255343023463
  0.298632812500  0.029958983361  0.029958983358  1.254821826140
  0.300390625000  0.029850596415  0.029850596412  1.254238784988
  0.302148437500  0.029739113834  0.029739113831  1.253583884687
  0.303906250000  0.029624585223  0.029624585220  1.252846277101
  0.305664062500  0.029507059568  0.029507059566  1.252014558555
  0.307421875000  0.029386585249  0.029386585247  1.251077216541
  0.309179687500  0.029263210051  0.029263210049  1.250023278085
  0.310937500000  0.029136981177  0.029136981175  1.248843176201
  0.312695312500  0.029007945260  0.029007945258  1.247529820506
  0.314453125000  0.028876148376  0.028876148374  1.246079811714
  0.316210937500  0.028741636054  0.028741636052  1.244494680713
  0.317968750000  0.028604453288  0.028604453286  1.242781972344
  0.319726562500  0.028464644547  0.028464644545  1.240955951231
  0.321484375000  0.028322253783  0.028322253782  1.239037706305
  0.323242187500  0.028177324448  0.028177324446  1.237054491564
  0.325000000000  0.028029899495  0.028029899494  1.235038265930
  0.326757812500  0.027880021395  0.027880021394  1.233023561073
  0.328515625000  0.027727732142  0.027727732140  1.231044965334
  0.330273437500  0.027573073262  0.027573073261  1.229134609787
  0.332031250000  0.027416085825  0.027416085824  1.227320042556
  0.333789062500  0.027256810451  0.027256810449  1.225622779761
  0.335546875000  0.027095287316  0.027095287315  1.224057662360
  0.337304687500  0.026931556167  0.026931556165  1.222632982318
  0.339062500000  0.026765656322  0.026765656321  1.221351216426
  0.340820312500  0.026597626683  0.026597626682  1.220210145399
  0.342578125000  0.026427505742  0.026427505741  1.219204136808
  0.344335937500  0.026255331586  0.026255331585  1.218325413478
  0.346093750000  0.026081141908  0.026081141906  1.217565189823
  0.347851562500  0.025904974009  0.025904974008  1.216914617951
  0.349609375000  0.025726864811  0.025726864810  1.216365532071
  0.351367187500  0.025546850856  0.025546850855  1.215911010418
  0.353125000000  0.025364968320  0.025364968319  1.215545790074
  0.354882812500  0.025181253013  0.025181253012  1.215266575425
  0.356640625000  0.024995740387  0.024995740386  1.215072279500
  0.358398437500  0.024808465545  0.024808465544  1.214964232217
  0.360156250000  0.024619463240  0.024619463239  1.214946382851
  0.361914062500  0.024428767890  0.024428767889  1.215025516777
  0.363671875000  0.024236413572  0.024236413571  1.215211499282
  0.365429687500  0.024042434039  0.024042434038  1.215517551660
  0.367187500000  0.023846862714  0.023846862713  1.215960556353
  0.368945312500  0.023649732706  0.023649732705  1.216561377807
  0.370703125000  0.023451076806  0.023451076805  1.217345173001
  0.372460937500  0.023250927496  0.023250927495  1.218341649376
  0.374218750000  0.023049316954  0.023049316953  1.219585207544
  0.375976562500  0.022846277057  0.022846277057  1.221114881708
  0.377734375000  0.022641839387  0.022641839386  1.222973963654
  0.379492187500  0.022436035233  0.022436035233  1.225209170060
  0.381250000000  0.022228895599  0.022228895598  1.227869194806
  0.383007812500  0.022020451204  0.022020451203  1.231002489011
  0.384765625000  0.021810732490  0.021810732489  1.234654147164
  0.386523437500  0.021599769623  0.021599769622  1.238861865279
  0.388281250000  0.021387592499  0.021387592498  1.243651090625
  0.390039062500  0.021174230746  0.021174230745  1.249029702991
  0.391796875000  0.020959713730  0.020959713730  1.254982830193
  0.393554687500  0.020744070558  0.020744070557  1.261468645534
  0.395312500000  0.020527330078  0.020527330078  1.268416129071
  0.397070312500  0.020309520890  0.020309520890  1.275725695243
  0.398828125000  0.020090671342  0.020090671342  1.283273230685
  0.400585937500  0.019870809538  0.019870809537  1.290917472074
  0.402343750000  0.019649963338  0.019649963338  1.298509924757
  0.404101562500  0.019428160366  0.019428160366  1.305905903913
  0.405859375000  0.019205428009  0.019205428009  1.312974991174
  0.407617187500  0.018981793421  0.018981793420  1.319609350470
  0.409375000000  0.018757283526  0.018757283526  1.325728879935
  0.411132812500  0.018531925024  0.018531925024  1.331282897367
  0.412890625000  0.018305744390  0.018305744390  1.336248729401
  0.414648437500  0.018078767879  0.018078767879  1.340628024547
  0.416406250000  0.017851021528  0.017851021527  1.344441776226
  0.418164062500  0.017622531158  0.017622531158  1.347724965984
  0.419921875000  0.017393322382  0.017393322381  1.350521515972
  0.421679687500  0.017163420599  0.017163420598  1.352879973744
  0.423437500000  0.016932851003  0.016932851003  1.354850113616
  0.425195312500  0.016701638587  0.016701638586  1.356480462415
  0.426953125000  0.016469808137  0.016469808137  1.357816649648
  0.428710937500  0.016237384245  0.016237384245  1.358900431675
  0.430468750000  0.016004391305  0.016004391304  1.359769229284
  0.432226562500  0.015770853515  0.015770853515  1.360456031590
  0.433984375000  0.015536794884  0.015536794884  1.360989543745
  0.435742187500  0.015302239233  0.015302239232  1.361394483263
  0.437500000000  0.015067210192  0.015067210191  1.361691955053
  0.439257812500  0.014831731209  0.014831731209  1.361899856553
  0.441015625000  0.014595825552  0.014595825552  1.362033280948
  0.442773437500  0.014359516305  0.014359516305  1.362104898874
  0.444531250000  0.014122826377  0.014122826377  1.362125307792
  0.446289062500  0.013885778501  0.013885778501  1.362103344200
  0.448046875000  0.013648395235  0.013648395235  1.362046357732
  0.449804687500  0.013410698968  0.013410698968  1.361960448609
  0.451562500000  0.013172711918  0.013172711918  1.361850671179
  0.453320312500  0.012934456138  0.012934456137  1.361721206994
  0.455078125000  0.012695953513  0.012695953512  1.361575511013
  0.456835937500  0.012457225767  0.012457225767  1.361416434447
  0.458593750000  0.012218294463  0.012218294462  1.361246327534
  0.460351562500  0.011979181003  0.011979181003  1.361067125198
  0.462109375000  0.011739906634  0.011739906634  1.360880418211
  0.463867187500  0.011500492447  0.011500492447  1.360687512130
  0.465625000000  0.011260959379  0.011260959378  1.360489475956
  0.467382812500  0.011021328214  0.011021328214  1.360287182175
  0.469140625000  0.010781619590  0.010781619590  1.360081339561
  0.470898437500  0.010541853995  0.010541853994  1.359872519922
  0.472656250000  0.010302051769  0.010302051769  1.359661179720
  0.474414062500  0.010062233110  0.010062233110  1.359447677382
  0.476171875000  0.009822418074  0.009822418074  1.359232286910
  0.477929687500  0.009582626573  0.009582626573  1.359015208304
  0.479687500000  0.009342878383  0.009342878383  1.358796575189
  0.481445312500  0.009103193140  0.009103193140  1.358576459921
  0.483203125000  0.008863590347  0.008863590347  1.358354876378
  0.484960937500  0.008624089369  0.008624089369  1.358131780534
  0.486718750000  0.008384709441  0.008384709441  1.357907068856
  0.488476562500  0.008145469667  0.008145469667  1.357680574461
  0.490234375000  0.007906389020  0.007906389020  1.357452060918
  0.491992187500  0.007667486347  0.007667486347  1.357221213476
  0.493750000000  0.007428780368  0.007428780368  1.356987627436
  0.495507812500  0.007190289677  0.007190289677  1.356750793271
  0.497265625000  0.006952032748  0.006952032748  1.356510078029
  0.499023437500  0.006714027930  0.006714027929  1.356264702442
  0.500781250000  0.006476293452  0.006476293452  1.356013713061
  0.502539062500  0.006238847428  0.006238847428  1.355755948652
  0.504296875000  0.006001707850  0.006001707850  1.355489999987
  0.506054687500  0.005764892597  0.005764892597  1.355214162123
  0.507812500000  0.005528419432  0.005528419432  1.354926378250
  0.509570312500  0.005292306006  0.005292306006  1.354624174260
  0.511328125000  0.005056569859  0.005056569859  1.354304583439
  0.513085937500  0.004821228419  0.004821228419  1.353964061068
  0.514843750000  0.004586299006  0.004586299006  1.353598389532
  0.516601562500  0.004351798833  0.004351798833  1.353202575654
  0.518359375000  0.004117745005  0.004117745005  1.352770743844
  0.520117187500  0.003884154524  0.003884154524  1.352296031223
  0.521875000000  0.003651044288  0.003651044288  1.351770494523
  0.523632812500  0.003418431091  0.003418431091  1.351185043374
  0.525390625000  0.003186331629  0.003186331629  1.350529420540
  0.527148437500  0.002954762495  0.002954762495  1.349792256650
  0.528906250000  0.002723740186  0.002723740186  1.348961234043
  0.530664062500  0.002493281100  0.002493281100  1.348023400156
  0.532421875000  0.002263401539  0.002263401539  1.346965672739
  0.534179687500  0.002034117711  0.002034117711  1.345775573390
  0.535937500000  0.001805445731  0.001805445731  1.344442207961
  0.537695312500  0.001577401618  0.001577401618  1.342957478008
  0.539453125000  0.001350001303  0.001350001303  1.341317454877
  0.541210937500  0.001123260625  0.001123260625  1.339523781146
  0.542968750000  0.000897195335  0.000897195335  1.337584895408
  0.544726562500  0.000671821095  0.000671821095  1.335516827962
  0.546484375000  0.000447153480  0.000447153480  1.333343314054
  0.548242187500  0.000223207980  0.000223207980  1.331095040384
  0.550000000000  0.000000000000  0.000000000000  1.328807982532
  0.551757812500 -0.000222455140 -0.000222455140  1.326520979067
  0.553515625000 -0.000444142202 -0.000444142202  1.324272868559
  0.555273437500 -0.000665046028 -0.000665046028  1.322099626584
  0.557031250000 -0.000885151543 -0.000885151543  1.320031939841
  0.558789062500 -0.001104443751 -0.001104443751  1.318093543569
  0.560546875000 -0.001322907735 -0.001322907735  1.316300468062
  0.562304687500 -0.001540528654 -0.001540528654  1.314661151905
  0.564062500000 -0.001757291746 -0.001757291746  1.313177237663
  0.565820312500 -0.001973182324 -0.001973182324  1.311844796671
  0.567578125000 -0.002188185775 -0.002188185775  1.310655730469
  0.569335937500 -0.002402287561 -0.002402287561  1.309599144890
  0.571093750000 -0.002615473218 -0.002615473218  1.308662561506
  0.572851562500 -0.002827728352 -0.002827728352  1.307832898038
  0.574609375000 -0.003039038641 -0.003039038641  1.307097201891
  0.576367187500 -0.003249389836 -0.003249389836  1.306443155359
  0.578125000000 -0.003458767755 -0.003458767754  1.305859389019
  0.579882812500 -0.003667158284 -0.003667158284  1.305335645574
  0.581640625000 -0.003874547381 -0.003874547381  1.304862834575
  0.583398437500 -0.004080921068 -0.004080921068  1.304433012664
  0.585156250000 -0.004286265434 -0.004286265434  1.304039316847
  0.586914062500 -0.004490566634 -0.004490566634  1.303675871396
  0.588671875000 -0.004693810890 -0.004693810890  1.303337682968
  0.590429687500 -0.004895984483 -0.004895984483  1.303020533741
  0.592187500000 -0.005097073764 -0.005097073764  1.302720878750
  0.593945312500 -0.005297065142 -0.005297065142  1.302435750973
  0.595703125000 -0.005495945090 -0.005495945090  1.302162675933
  0.597460937500 -0.005693700142 -0.005693700142  1.301899596364
  0.599218750000 -0.005890316893 -0.005890316893  1.301644806770
  0.600976562500 -0.006085781999 -0.006085781998  1.301396897245
  0.602734375000 -0.006280082173 -0.006280082173  1.301154705726
  0.604492187500 -0.006473204189 -0.006473204189  1.300917277752
  0.606250000000 -0.006665134880 -0.006665134880  1.300683832818
  0.608007812500 -0.006855861134 -0.006855861134  1.300453736457
  0.609765625000 -0.007045369898 -0.007045369898  1.300226477291
  0.611523437500 -0.007233648175 -0.007233648175  1.300001648354
  0.613281250000 -0.007420683024 -0.007420683024  1.299778932128
  0.615039062500 -0.007606461560 -0.007606461560  1.299558088793
  0.616796875000 -0.007790970952 -0.007790970951  1.299338947321
  0.618554687500 -0.007974198423 -0.007974198423  1.299121399109
  0.620312500000 -0.008156131253 -0.008156131253  1.298905393931
  0.622070312500 -0.008336756772 -0.008336756772  1.298690938078
  0.623828125000 -0.008516062364 -0.008516062364  1.298478094629
  0.625585937500 -0.008694035467 -0.008694035467  1.298266985862
  0.627343750000 -0.008870663570 -0.008870663570  1.298057797899
  0.629101562500 -0.009045934213 -0.009045934213  1.297850787771
  0.630859375000 -0.009219834990 -0.009219834990  1.297646293154
  0.632617187500 -0.009392353542 -0.009392353542  1.297444745142
  0.634375000000 -0.009563477564 -0.009563477564  1.297246684527
  0.636132812500 -0.009733194799 -0.009733194799  1.297052782181
