radius      S_expected         S_actual            Error 
  0.000000000000             NaN -0.689628525566             NaN
  0.003921568627 -0.380313514964 -0.432804312634  1.151979451751
  0.007843137255 -0.255222206883 -0.258220759438  1.150398466369
  0.011764705882 -0.197399937786 -0.198360163128  1.150007613865
  0.015686274510 -0.161607780203 -0.162039836708  1.149621527182
  0.019607843137 -0.136338978327 -0.136569780421  1.149238119055
  0.023529411765 -0.117105088375 -0.117241941652  1.148858465369
  0.027450980392 -0.101735574889 -0.101822598203  1.148484532277
  0.031372549020 -0.089031524801 -0.089089681850  1.148119398773
  0.035294117647 -0.078267387517 -0.078307705949  1.147767825769
  0.039215686275 -0.068973697047 -0.069002433878  1.147437158677
  0.043137254902 -0.060830708941 -0.060851628664  1.147138716053
  0.047058823529 -0.053611629000 -0.053627104895  1.146889910055
  0.050980392157 -0.047150198904 -0.047161785373  1.146717460322
  0.054901960784 -0.041321159431 -0.041329907343  1.146662211156
  0.058823529412 -0.036027939489 -0.036034578550  1.146786225140
  0.062745098039 -0.031194603961 -0.031199652572  1.147182931737
  0.066666666667 -0.026760417566 -0.026764251333  1.147990954225
  0.070588235294 -0.022676073317 -0.022678969084  1.149411350373
  0.074509803922 -0.018901012986 -0.018903177885  1.151725447451
  0.078431372549 -0.015401483246 -0.015403074312  1.155304792842
  0.082352941176 -0.012149099200 -0.012150236886  1.160594929116
  0.086274509804 -0.009119765209 -0.009120542869  1.168043631817
  0.090196078431 -0.006292852042 -0.006293342703  1.177945938051
  0.094117647059 -0.003650561043 -0.003650822300  1.190220312398
  0.098039215686 -0.001177426795 -0.001177504406  1.204223980846
  0.101960784314  0.001140076207  0.001140145645  1.218786812692
  0.105882352941  0.003313847783  0.003314034835  1.232545918853
  0.109803921569  0.005354415466  0.005354696329  1.244407439546
  0.113725490196  0.007271140584  0.007271495928  1.253834012764
  0.117647058824  0.009072387224  0.009072801285  1.260828912278
  0.121568627451  0.010765661758  0.010766121638  1.265731658456
  0.125490196078  0.012357728877  0.012358223993  1.269000827132
  0.129411764706  0.013854708692  0.013855230341  1.271074126996
  0.133333333333  0.015262158483  0.015262699494  1.272308689645
  0.137254901961  0.016585141904  0.016585696363  1.272971408057
  0.141176470588  0.017828287889  0.017828850915  1.273251432795
  0.145098039216  0.018995841030  0.018996408594  1.273278450482
  0.149019607843  0.020091704861  0.020092273640  1.273139529590
  0.152941176471  0.021119479219  0.021120046478  1.272892346020
  0.156862745098  0.022082492624  0.022083056115  1.272574777371
  0.160784313725  0.022983830444  0.022984388328  1.272211561379
  0.164705882353  0.023826359500  0.023826910279  1.271818796532
  0.168627450980  0.024612749626  0.024613292087  1.271406935122
  0.172549019608  0.025345492622  0.025346025793  1.270982753541
  0.176470588235  0.026026918984  0.026027442094  1.270550640926
  0.180392156863  0.026659212697  0.026659725144  1.270113438514
  0.184313725490  0.027244424368  0.027244925694  1.269672984873
  0.188235294118  0.027784482910  0.027784972777  1.269230469472
  0.192156862745  0.028281205968  0.028281684137  1.268786661676
  0.196078431373  0.028736309240  0.028736775559  1.268342058903
  0.200000000000  0.029151414841  0.029151869228  1.267896982391
  0.203921568627  0.029528058813  0.029528501247  1.267451638959
  0.207843137255  0.029867697891  0.029868128399  1.267006160695
  0.211764705882  0.030171715610  0.030172134262  1.266560630200
  0.215686274510  0.030441427827  0.030441834728  1.266115096279
  0.219607843137  0.030678087727  0.030678483010  1.265669583105
  0.223529411765  0.030882890360  0.030883274181  1.265224094614
  0.227450980392  0.031056976777  0.031057349312  1.264778615008
  0.231372549020  0.031201437790  0.031201799230  1.264333105440
  0.235294117647  0.031317317405  0.031317667954  1.263887496254
  0.239215686275  0.031405615963  0.031405955833  1.263441673288
  0.243137254902  0.031467293006  0.031467622417  1.262995455614
  0.247058823529  0.031503269916  0.031503589093  1.262548560416
  0.250980392157  0.031514432324  0.031514741497  1.262100548315
  0.254901960784  0.031501632337  0.031501931737  1.261650738664
  0.258823529412  0.031465690580  0.031465980438  1.261198078781
  0.262745098039  0.031407398075  0.031407678624  1.260740942483
  0.266666666667  0.031327517984  0.031327789455  1.260276820589
  0.270588235294  0.031226787213  0.031227049835  1.259801847238
  0.274509803922  0.031105917894  0.031106171895  1.259310079099
  0.278431372549  0.030965598760  0.030965844364  1.258792408385
  0.282352941176  0.030806496419  0.030806733848  1.258234946843
  0.286274509804  0.030629256535  0.030629486006  1.257616677864
  0.290196078431  0.030434504925  0.030434726653  1.256906173024
  0.294117647059  0.030222848577  0.030223062773  1.256057296490
  0.298039215686  0.029994876605  0.029995083474  1.255004265904
  0.301960784314  0.029751161122  0.029751360867  1.253657536717
  0.305882352941  0.029492258077  0.029492450894  1.251904124615
  0.309803921569  0.029218708011  0.029218894095  1.249619070287
  0.313725490196  0.028931036785  0.028931216325  1.246696628750
  0.317647058824  0.028629756247  0.028629929426  1.243104385814
  0.321568627451  0.028315364856  0.028315531856  1.238943885754
  0.325490196078  0.027988348279  0.027988509274  1.234474767227
  0.329411764706  0.027649179935  0.027649335096  1.230060663851
  0.333333333333  0.027298321512  0.027298471007  1.226050594370
  0.337254901961  0.026936223458  0.026936367450  1.222671358472
  0.341176470588  0.026563325432  0.026563464078  1.219995624277
  0.345098039216  0.026180056735  0.026180190190  1.217981786521
  0.349019607843  0.025786836713  0.025786965127  1.216538895836
  0.352941176471  0.025384075140  0.025384198659  1.215579909638
  0.356862745098  0.024972172574  0.024972291340  1.215053803126
  0.360784313725  0.024551520697  0.024551634850  1.214963070657
  0.364705882353  0.024122502639  0.024122612313  1.215375985909
  0.368627450980  0.023685493275  0.023685598601  1.216439966149
  0.372549019608  0.023240859516  0.023240960621  1.218397768839
  0.376470588235  0.022788960580  0.022789057588  1.221602120474
  0.380392156863  0.022330148249  0.022330241282  1.226514889306
  0.384313725490  0.021864767118  0.021864856292  1.233663604262
  0.388235294118  0.021393154822  0.021393240252  1.243518361950
  0.392156862745  0.020915642264  0.020915724060  1.256269586469
  0.396078431373  0.020432553822  0.020432632093  1.271563411294
  0.400000000000  0.019944207554  0.019944282405  1.288367777201
  0.403921568627  0.019450915389  0.019450986921  1.305161552125
  0.407843137255  0.018952983310  0.018953051624  1.320426142184
  0.411764705882  0.018450711535  0.018450776726  1.333136096920
  0.415686274510  0.017944394681  0.017944456843  1.342946102842
  0.419607843137  0.017434321928  0.017434381153  1.350055481185
  0.423529411765  0.016920777176  0.016920833552  1.354943361495
  0.427450980392  0.016404039194  0.016404092808  1.358147508860
  0.431372549020  0.015884381763  0.015884432699  1.360143173700
  0.435294117647  0.015362073818  0.015362122157  1.361302241562
  0.439215686275  0.014837379579  0.014837425401  1.361895793532
  0.443137254902  0.014310558682  0.014310602064  1.362113002804
  0.447058823529  0.013781866304  0.013781907322  1.362082306753
  0.450980392157  0.013251553285  0.013251592011  1.361889387309
  0.454901960784  0.012719866244  0.012719902749  1.361590751905
  0.458823529412  0.012187047694  0.012187082047  1.361223375333
  0.462745098039  0.011653336150  0.011653368420  1.360811301001
  0.466666666667  0.011118966241  0.011118996492  1.360370056857
  0.470588235294  0.010584168810  0.010584197105  1.359909558822
  0.474509803922  0.010049171015  0.010049197417  1.359435986003
  0.478431372549  0.009514196431  0.009514221001  1.358952957672
  0.482352941176  0.008979465145  0.008979487940  1.358462225993
  0.486274509804  0.008445193846  0.008445214924  1.357964013142
  0.490196078431  0.007911595920  0.007911615337  1.357457056846
  0.494117647059  0.007378881539  0.007378899349  1.356938375142
  0.498039215686  0.006847257744  0.006847273999  1.356402711541
  0.501960784314  0.006316928533  0.006316943284  1.355841569854
  0.505882352941  0.005788094940  0.005788108237  1.355241691018
  0.509803921569  0.005260955119  0.005260967011  1.354582768176
  0.513725490196  0.004735704420  0.004735714954  1.353834166773
  0.517647058824  0.004212535467  0.004212544689  1.352950485479
  0.521568627451  0.003691638229  0.003691646183  1.351866125787
  0.525490196078  0.003173200098  0.003173206829  1.350489948944
  0.529411764706  0.002657405956  0.002657411505  1.348703044334
  0.533333333333  0.002144438244  0.002144442653  1.346365841089
  0.537254901961  0.001634477031  0.001634480341  1.343343974567
  0.541176470588  0.001127700080  0.001127702329  1.339560381003
  0.545098039216  0.000624282909  0.000624284135  1.335065347122
  0.549019607843  0.000124398854  0.000124399095  1.330086063040
  0.552941176471 -0.000371780870 -0.000371781578  1.325000967142
  0.556862745098 -0.000864087112 -0.000864088735  1.320224859959
  0.560784313725 -0.001352352728 -0.001352355231  1.316069946680
  0.564705882353 -0.001836412526 -0.001836415874  1.312672319571
  0.568627450980 -0.002316103211 -0.002316107374  1.310009835367
  0.572549019608 -0.002791263340 -0.002791268284  1.307968639675
  0.576470588235 -0.003261733264 -0.003261738960  1.306406971381
  0.580392156863 -0.003727355088 -0.003727361504  1.305193770487
  0.584313725490 -0.004187972620 -0.004187979727  1.304223897005
  0.588235294118 -0.004643431328 -0.004643439099  1.303419557224
  0.592156862745 -0.005093578302 -0.005093586708  1.302725964458
  0.596078431373 -0.005538262205 -0.005538271219  1.302105725330
  0.600000000000 -0.005977333243 -0.005977342838  1.301533845003
  0.603921568627 -0.006410643122 -0.006410653274  1.300993875492
  0.607843137255 -0.006838045017 -0.006838055699  1.300475160208
  0.611764705882 -0.007259393536 -0.007259404724  1.299970955994
  0.615686274510 -0.007674544688 -0.007674556358  1.299477207352
  0.619607843137 -0.008083355855 -0.008083367985  1.298991795377
  0.623529411765 -0.008485685766 -0.008485698332  1.298514141521
  0.627450980392 -0.008881394465 -0.008881407445  1.298045100131
  0.631372549020 -0.009270343292 -0.009270356665  1.297587122784
  0.635294117647 -0.009652394856 -0.009652408600  1.297144726415
  0.639215686275 -0.010027413018 -0.010027427113  1.296725352568
  0.643137254902 -0.010395262868 -0.010395277295  1.296340775131
  0.647058823529 -0.010755810711 -0.010755825449  1.296009307753
  0.650980392157 -0.011108924047 -0.011108939078  1.295759188733
  0.654901960784 -0.011454471559 -0.011454486864  1.295633683685
  0.658823529412 -0.011792323100 -0.011792338661  1.295698627710
  0.662745098039 -0.012122349683 -0.012122365482  1.296053256302
  0.666666666667 -0.012444423466 -0.012444439487  1.296845041427
  0.670588235294 -0.012758417752 -0.012758433977  1.298288369361
  0.674509803922 -0.013064206975 -0.013064223388  1.300684292769
  0.678431372549 -0.013361666698 -0.013361683282  1.304432716481
  0.682352941176 -0.013650673608 -0.013650690349  1.310017964229
  0.686274509804 -0.013931105514 -0.013931122397  1.317936309009
  0.690196078431 -0.014202841347 -0.014202858356  1.328533820857
  0.694117647059 -0.014465761154 -0.014465778275  1.341764261284
  0.698039215686 -0.014719746107 -0.014719763326  1.356976044095
  0.701960784314 -0.014964678498 -0.014964695801  1.372923169425
  0.705882352941 -0.015200441747 -0.015200459120  1.388107656702
  0.709803921569 -0.015426920403 -0.015426937834  1.401286593674
  0.713725490196 -0.015644000151 -0.015644017626  1.411812585566
  0.717647058824 -0.015851567816 -0.015851585324  1.419642099645
  0.721568627451 -0.016049511372 -0.016049528900  1.425120442482
  0.725490196078 -0.016237719948 -0.016237737484  1.428738390420
  0.729411764706 -0.016416083835 -0.016416101368  1.430968879991
  0.733333333333 -0.016584494499 -0.016584512017  1.432192796516
  0.737254901961 -0.016742844585 -0.016742862077  1.432681711049
  0.741176470588 -0.016891027929 -0.016891045384  1.432605853877
  0.745098039216 -0.017028939571 -0.017028956979  1.432048289372
  0.749019607843 -0.017156475760 -0.017156493110  1.431017408291
  0.752941176471 -0.017273533970 -0.017273551253  1.429457399729
  0.756862745098 -0.017380012909 -0.017380030114  1.427262044146
  0.760784313725 -0.017475812528 -0.017475829646  1.424301986748
  0.764705882353 -0.017560834036 -0.017560851058  1.420476777437
  0.768627450980 -0.017634979910 -0.017634996826  1.415792089238
  0.772549019608 -0.017698153904 -0.017698170706  1.410433098111
  0.776470588235 -0.017750261065 -0.017750277743  1.404774767858
  0.780392156863 -0.017791207739 -0.017791224285  1.399287890787
  0.784313725490 -0.017820901583 -0.017820917990  1.394381735668
  0.788235294118 -0.017839251578 -0.017839267837  1.390286219782
  0.792156862745 -0.017846168037 -0.017846184140  1.387036525319
  0.796078431373 -0.017841562614 -0.017841578552  1.384534946174
  0.800000000000 -0.017825348314 -0.017825364081  1.382628378441
  0.803921568627 -0.017797439501 -0.017797455089  1.381162898322
  0.807843137255 -0.017757751908 -0.017757767310  1.380009487768
  0.811764705882 -0.017706202642 -0.017706217850  1.379070180849
  0.815686274510 -0.017642710191 -0.017642725200  1.378274852825
  0.819607843137 -0.017567194433 -0.017567209235  1.377575114181
  0.823529411765 -0.017479576635 -0.017479591224  1.376938339042
  0.827450980392 -0.017379779464 -0.017379793833  1.376342853294
  0.831372549020 -0.017267726987 -0.017267741130  1.375774394639
  0.835294117647 -0.017143344674 -0.017143358584  1.375223635402
  0.839215686275 -0.017006559398 -0.017006573070  1.374684499386
  0.843137254902 -0.016857299440 -0.016857312868  1.374153038718
  0.847058823529 -0.016695494487 -0.016695507665  1.373626692784
  0.850980392157 -0.016521075626 -0.016521088548  1.373103802759
  0.854901960784 -0.016333975349 -0.016333988010  1.372583295054
  0.858823529412 -0.016134127545 -0.016134139940  1.372064475525
  0.862745098039 -0.015921467498 -0.015921479621  1.371546895980
  0.866666666667 -0.015695931878 -0.015695943724  1.371030267771
  0.870588235294 -0.015457458739 -0.015457470303  1.370514405990
  0.874509803922 -0.015205987506 -0.015205998783  1.369999193619
  0.878431372549 -0.014941458972 -0.014941469958  1.369484558742
  0.882352941176 -0.014663815283 -0.014663825973  1.368970460451
  0.886274509804 -0.014372999931 -0.014373010319  1.368456880723
  0.890196078431 -0.014068957737 -0.014068967820  1.367943820706
  0.894117647059 -0.013751634844 -0.013751644617  1.367431300706
  0.898039215686 -0.013420978696 -0.013420988155  1.366919363857
  0.901960784314 -0.013076938028 -0.013076947168  1.366408084186
  0.905882352941 -0.012719462848 -0.012719471665  1.365897580626
  0.909803921569 -0.012348504416 -0.012348512906  1.365388039655
  0.913725490196 -0.011964015232 -0.011964023392  1.364879750925
  0.917647058824 -0.011565949012 -0.011565956837  1.364373162709
  0.921568627451 -0.011154260667 -0.011154268154  1.363868967772
  0.925490196078 -0.010728906287 -0.010728913431  1.363368236108
  0.929411764706 -0.010289843113 -0.010289849911  1.362872619773
  0.933333333333 -0.009837029516 -0.009837035964  1.362384668623
  0.937254901961 -0.009370424975 -0.009370431069  1.361908316167
  0.941176470588 -0.008889990048 -0.008889995786  1.361449625419
  0.945098039216 -0.008395686354 -0.008395691732  1.361017929679
  0.949019607843 -0.007887476538 -0.007887481552  1.360627567443
  0.952941176471 -0.007365324252 -0.007365328899  1.360300497295
  0.956862745098 -0.006829194121 -0.006829198398  1.360070183456
  0.960784313725 -0.006279051723 -0.006279055626  1.359987238283
  0.964705882353 -0.005714863552 -0.005714867078  1.360127309513
  0.968627450980 -0.005136596996 -0.005136600143  1.360601394357
  0.972549019608 -0.004544220306 -0.004544223069  1.361567693796
  0.976470588235 -0.003937702562 -0.003937704940  1.363241484161
  0.980392156863 -0.003317013652 -0.003317015641  1.365894326571
  0.984313725490 -0.002682124234 -0.002682125831  1.369826507995
  0.988235294118 -0.002033005708 -0.002033006910  1.375292076962
  0.992156862745 -0.001369630188 -0.001369630992  1.382368768306
  0.996078431373 -0.000691970470 -0.000691970874  1.390812442651
  1.000000000000 -0.000000000000 -0.000000000000  1.400000000000
