radius      S_expected         S_actual            Error 
  0.100000000000  0.207031273120  0.207019829030  0.537163649516
  0.103515625000  0.209532544471  0.209538266054  0.545118303000
  0.107031250000  0.211448716471  0.211454436866  0.552979906134
  0.110546875000  0.212839340448  0.212845060583  0.560793388695
  0.114062500000  0.213756636343  0.213762357135  0.568570914504
  0.117578125000  0.214246589723  0.214252312074  0.576295352907
  0.121093750000  0.214349857665  0.214355582463  0.583933755802
  0.124609375000  0.214102521275  0.214108249389  0.591451113271
  0.128125000000  0.213536714289  0.213542446574  0.598819108962
  0.131640625000  0.212681150931  0.212686888221  0.606019413525
  0.135156250000  0.211561571354  0.211567314462  0.613043311703
  0.138671875000  0.210201119298  0.210206869018  0.619889634385
  0.142187500000  0.208620663703  0.208626420803  0.626562329674
  0.145703125000  0.206839073720  0.206844838948  0.633068339668
  0.149218750000  0.204873454830  0.204879228909  0.639416004228
  0.152734375000  0.202739352320  0.202745135945  0.645613982739
  0.156250000000  0.200450927257  0.200456721097  0.651670594919
  0.159765625000  0.198021109204  0.198026913902  0.657593465381
  0.163281250000  0.195461729178  0.195467545348  0.663389371508
  0.166796875000  0.192783635763  0.192789463989  0.669064217993
  0.170312500000  0.189996796811  0.190002637648  0.674623084146
  0.173828125000  0.187110388774  0.187116242745  0.680070308289
  0.177343750000  0.184132875384  0.184138742983  0.685409586977
  0.180859375000  0.181072077127  0.181077958814  0.690644075979
  0.184375000000  0.177935232734  0.177941128938  0.695776486051
  0.187890625000  0.174729053749  0.174734964866  0.700809170401
  0.191406250000  0.171459773053  0.171465699445  0.705744203076
  0.194921875000  0.168133188106  0.168139130101  0.710583448937
  0.198437500000  0.164754699570  0.164760657463  0.715328626633
  0.201953125000  0.161329345867  0.161335319920  0.719981366467
  0.205468750000  0.157861834172  0.157867824611  0.724543265267
  0.208984375000  0.154356568241  0.154362575258  0.729015940590
  0.212500000000  0.150817673461  0.150823697216  0.733401086743
  0.216015625000  0.147249019430  0.147255060046  0.737700535324
  0.219531250000  0.143654240336  0.143660297903  0.741916323317
  0.223046875000  0.140036753397  0.140042827972  0.746050772131
  0.226562500000  0.136399775559  0.136405867163  0.750106581543
  0.230078125000  0.132746338637  0.132752447260  0.754086943153
  0.233593750000  0.129079303078  0.129085428677  0.757995678732
  0.237109375000  0.125401370478  0.125407512977  0.761837409829
  0.240625000000  0.121715094977  0.121721254268  0.765617765973
  0.244140625000  0.118022893664  0.118029069607  0.769343639845
  0.247656250000  0.114327056070  0.114333248496  0.773023498701
  0.251171875000  0.110629752856  0.110635961565  0.776667761725
  0.254687500000  0.106933043760  0.106939268523  0.780289252559
  0.258203125000  0.103238884889  0.103245125448  0.783903734134
  0.261718750000  0.099549135405  0.099555391475  0.787530527909
  0.265234375000  0.095865563673  0.095871834942  0.791193210006
  0.268750000000  0.092189852912  0.092196139044  0.794920359826
  0.272265625000  0.088523606404  0.088529907035  0.798746309058
  0.275781250000  0.084868352289  0.084874667033  0.802711796206
  0.279296875000  0.081225547998  0.081231876448  0.806864369185
  0.282812500000  0.077596584345  0.077602926071  0.811258293194
  0.286328125000  0.073982789315  0.073989143867  0.815953615688
  0.289843750000  0.070385431568  0.070391798476  0.821013931171
  0.293359375000  0.066805723688  0.066812102466  0.826502319118
  0.296875000000  0.063244825207  0.063251215351  0.832474987323
  0.300390625000  0.059703845400  0.059710246393  0.838972489712
  0.303906250000  0.056183845901  0.056190257210  0.846009196870
  0.307421875000  0.052685843128  0.052692264208  0.853563108066
  0.310937500000  0.049210810551  0.049217240846  0.861569862927
  0.314453125000  0.045759680805  0.045766119750  0.869925821904
  0.317968750000  0.042333347672  0.042339794693  0.878503153291
  0.321484375000  0.038932667929  0.038939122444  0.887173266719
  0.325000000000  0.035558463085  0.035564924508  0.895826430751
  0.328515625000  0.032211521008  0.032217988748  0.904374179119
  0.332031250000  0.028892597459  0.028899070924  0.912733701089
  0.335546875000  0.025602417533  0.025608896126  0.920809932204
  0.339062500000  0.022341677012  0.022348160139  0.928492657926
  0.342578125000  0.019111043653  0.019117530722  0.935671012343
  0.346093750000  0.015911158398  0.015917648817  0.942254048021
  0.349609375000  0.012742636519  0.012749129703  0.948185300182
  0.353125000000  0.009606068709  0.009612564076  0.953446709163
  0.356640625000  0.006502022113  0.006508519090  0.958053873985
  0.360156250000  0.003431041311  0.003437539333  0.962046967699
  0.363671875000  0.000393649254  0.000400147764  0.965481000770
  0.367187500000 -0.002609651845 -0.002603153392  0.968417538264
  0.370703125000 -0.005578379655 -0.005571881793  0.970918626001
  0.374218750000 -0.008512070915 -0.008505574164  0.973042871070
  0.377734375000 -0.011410280649 -0.011403785515  0.974843266131
  0.381250000000 -0.014272581417 -0.014266088391  0.976366268304
  0.384765625000 -0.017098562595 -0.017092072152  0.977651698069
  0.388281250000 -0.019887829679 -0.019881342276  0.978733122920
  0.391796875000 -0.022640003617 -0.022633519693  0.979638489965
  0.395312500000 -0.025354720167 -0.025348240141  0.980390853502
  0.398828125000 -0.028031629269 -0.028025153541  0.981009104262
  0.402343750000 -0.030670394446 -0.030663923395  0.981508648744
  0.405859375000 -0.033270692220 -0.033264226203  0.981902014254
  0.409375000000 -0.035832211548 -0.035825750899  0.982199371881
  0.412890625000 -0.038354653271 -0.038348198302  0.982408979210
  0.416406250000 -0.040837729584 -0.040831280583  0.982537549550
  0.419921875000 -0.043281163520 -0.043274720752  0.982590556602
  0.423437500000 -0.045684688445 -0.045678252150  0.982572483966
  0.426953125000 -0.048048047573 -0.048041617965  0.982487028496
  0.430468750000 -0.050370993487 -0.050364570755  0.982337265658
  0.433984375000 -0.052653287678 -0.052646871987  0.982125784029
  0.437500000000 -0.054894700096 -0.054888291584  0.981854795065
  0.441015625000 -0.057095008707 -0.057088607487  0.981526223371
  0.444531250000 -0.059253999070 -0.059247605230  0.981141781846
  0.448046875000 -0.061371463921 -0.061365077520  0.980703035434
  0.451562500000 -0.063447202764 -0.063440823838  0.980211456632
  0.455078125000 -0.065481021478 -0.065474650038  0.979668475453
  0.458593750000 -0.067472731937 -0.067466367967  0.979075526176
  0.462109375000 -0.069422151631 -0.069415795090  0.978434092878
  0.465625000000 -0.071329103306 -0.071322754130  0.977745755461
  0.469140625000 -0.073193414612 -0.073187072709  0.977012237512
  0.472656250000 -0.075014917756 -0.075008583014  0.976235456844
  0.476171875000 -0.076793449175 -0.076787121456  0.975417578853
  0.479687500000 -0.078528849210 -0.078522528354  0.974561071606
  0.483203125000 -0.080220961796 -0.080214647621  0.973668759689
  0.486718750000 -0.081869634158 -0.081863326461  0.972743870790
  0.490234375000 -0.083474716522 -0.083468415078  0.971790064235
  0.493750000000 -0.085036061833 -0.085029766398  0.970811423408
  0.497265625000 -0.086553525483 -0.086547235793  0.969812383147
  0.500781250000 -0.088026965052 -0.088020680826  0.968797547698
  0.504296875000 -0.089456240058 -0.089449960997  0.967771333765
  0.507812500000 -0.090841211718 -0.090834937507  0.966737346997
  0.511328125000 -0.092181742718 -0.092175473027  0.965697372921
  0.514843750000 -0.093477696997 -0.093471431481  0.964649846803
  0.518359375000 -0.094728939539 -0.094722677841  0.963587689202
  0.521875000000 -0.095935336175 -0.095929077926  0.962495511211
  0.525390625000 -0.097096753404 -0.097090498223  0.961346499997
  0.528906250000 -0.098213058209 -0.098206805707  0.960099912288
  0.532421875000 -0.099284117903 -0.099277867682  0.958701084299
  0.535937500000 -0.100309799970 -0.100303551624  0.957086926599
  0.539453125000 -0.101289971926 -0.101283725045  0.955199932758
  0.542968750000 -0.102224501190 -0.102218255359  0.953010789367
  0.546484375000 -0.103113254961 -0.103107009761  0.950542447743
  0.550000000000 -0.103956100114 -0.103949855124  0.947880568619
  0.553515625000 -0.104752903099 -0.104746657899  0.945156569170
  0.557031250000 -0.105503529856 -0.105497284025  0.942506220726
  0.560546875000 -0.106207845740 -0.106201598859  0.940026467686
  0.564062500000 -0.106865715454 -0.106859467108  0.937754373891
  0.567578125000 -0.107477002995 -0.107470752774  0.935673611590
  0.571093750000 -0.108041571615 -0.108035319112  0.933736325141
  0.574609375000 -0.108559283778 -0.108553028597  0.931885345720
  0.578125000000 -0.109030001147 -0.109023742897  0.930068860530
  0.581640625000 -0.109453584565 -0.109447322867  0.928246876405
  0.585156250000 -0.109829894054 -0.109823628538  0.926392089524
  0.588671875000 -0.110158788821 -0.110152519130  0.924487996791
  0.592187500000 -0.110440127274 -0.110433853063  0.922526170721
  0.595703125000 -0.110673767048 -0.110667487987  0.920503685308
  0.599218750000 -0.110859565041 -0.110853280815  0.918421062825
  0.602734375000 -0.110997377453 -0.110991087763  0.916280789959
  0.606250000000 -0.111087059842 -0.111080764407  0.914086319239
  0.609765625000 -0.111128467183 -0.111122165739  0.911841437948
  0.613281250000 -0.111121453934 -0.111115146237  0.909549895626
  0.616796875000 -0.111065874114 -0.111059559940  0.907215204007
  0.620312500000 -0.110961581383 -0.110955260528  0.904840546704
  0.623828125000 -0.110808429136 -0.110802101417  0.902428755465
  0.627343750000 -0.110606270592 -0.110599935850  0.899982324575
  0.630859375000 -0.110354958906 -0.110348617003  0.897503445348
  0.634375000000 -0.110054347268 -0.110047998092  0.894994049772
  0.637890625000 -0.109704289023 -0.109697932482  0.892455857047
  0.641406250000 -0.109304637785 -0.109298273815  0.889890419770
  0.644921875000 -0.108855247564 -0.108848876124  0.887299168460
  0.648437500000 -0.108355972891 -0.108349593966  0.884683454291
  0.651953125000 -0.107806668951 -0.107800282550  0.882044590700
  0.655468750000 -0.107207191714 -0.107200797873  0.879383894998
  0.658984375000 -0.106557398075 -0.106550996855  0.876702731527
  0.662500000000 -0.105857145996 -0.105850737484  0.874002558185
  0.666015625000 -0.105106294642 -0.105099878950  0.871284978480
  0.669531250000 -0.104304704529 -0.104298281797  0.868551801625
  0.673046875000 -0.103452237666 -0.103445808058  0.865805113654
  0.676562500000 -0.102548757704 -0.102542321408  0.863047363028
  0.680078125000 -0.101594130075 -0.101587687307  0.860281464889
  0.683593750000 -0.100588222143 -0.100581773143  0.857510928866
  0.687109375000 -0.099530903346 -0.099524448377  0.854740016190
  0.690625000000 -0.098422045339 -0.098415584690  0.851973932826
  0.694140625000 -0.097261522138 -0.097255056121  0.849219066238
  0.697656250000 -0.096049210259 -0.096042739208  0.846483274133
  0.701171875000 -0.094784988853 -0.094778513125  0.843776233855
  0.704687500000 -0.093468739846 -0.093462259820  0.841109860445
  0.708203125000 -0.092100348066 -0.092093864142  0.838498799146
  0.711718750000 -0.090679701374 -0.090673213971  0.835960993070
  0.715234375000 -0.089206690787 -0.089200200344  0.833518317124
  0.718750000000 -0.087681210596 -0.087674717571  0.831197252711
  0.722265625000 -0.086103158486 -0.086096663352  0.829029550725
  0.725781250000 -0.084472435639 -0.084465938887  0.827052788896
  0.729296875000 -0.082788946844 -0.082782448982  0.825310669272
  0.732812500000 -0.081052600594 -0.081046102141  0.823852820055
  0.736328125000 -0.079263309178 -0.079256810668  0.822733766479
  0.739843750000 -0.077420988768 -0.077414490746  0.822010635160
  0.743359375000 -0.075525559499 -0.075519062521  0.821739100138
  0.746875000000 -0.073576945540 -0.073570450172  0.821967157193
  0.750390625000 -0.071575075162 -0.071568581978  0.822726677868
  0.753906250000 -0.069519880795 -0.069513390376  0.824023541081
  0.757421875000 -0.067411299078 -0.067404812009  0.825828587368
  0.760937500000 -0.065249270903 -0.065242787776  0.828073404095
  0.764453125000 -0.063033741450 -0.063027262857  0.830655810724
  0.767968750000 -0.060764660210 -0.060758186746  0.833457547884
  0.771484375000 -0.058441981010 -0.058435513269  0.836369372978
  0.775000000000 -0.056065662014 -0.056059200591  0.839309803736
  0.778515625000 -0.053635665734 -0.053629211219  0.842223240136
  0.782031250000 -0.051151959014 -0.051145511994  0.845057862400
  0.785546875000 -0.048614513021 -0.048608074076  0.847741978279
  0.789062500000 -0.046023303216 -0.046016872920  0.850178571131
  0.792578125000 -0.043378309319 -0.043371888239  0.852260598672
  0.796093750000 -0.040679515274 -0.040673103965  0.853894170363
  0.799609375000 -0.037926909191 -0.037920508198  0.855015900047
  0.803125000000 -0.035120483287 -0.035114093143  0.855598974947
  0.806640625000 -0.032260233824 -0.032253855046  0.855649791692
  0.810156250000 -0.029346161022 -0.029339794115  0.855199664439
  0.813671875000 -0.026378268983 -0.026371914432  0.854295497729
  0.817187500000 -0.023356565591 -0.023350223866  0.852991681174
  0.820703125000 -0.020281062412 -0.020274733962  0.851344056464
  0.824218750000 -0.017151774583 -0.017145459839  0.849405960148
  0.827734375000 -0.013968720697 -0.013962420066  0.847225967785
  0.831250000000 -0.010731922671 -0.010725636540  0.844846873227
  0.834765625000 -0.007441405620 -0.007435134351  0.842305483020
  0.838281250000 -0.004097197709 -0.004090941639  0.839632899483
  0.841796875000 -0.000699330011 -0.000693089452  0.836855061487
  0.845312500000  0.002752163652  0.002758388416  0.833993391189
  0.848828125000  0.006257246869  0.006263455578  0.831065453867
  0.852343750000  0.009815880804  0.009822073230  0.828085578796
  0.855859375000  0.013428024375  0.013434200319  0.825065415704
  0.859375000000  0.017093634432  0.017099793723  0.822014417782
  0.862890625000  0.020812665938  0.020818808437  0.818940251739
  0.866406250000  0.024585072163  0.024591197762  0.815849140454
  0.869921875000  0.028410804874  0.028416913498  0.812746146032
  0.873437500000  0.032289814540  0.032295906144  0.809635401706
  0.876953125000  0.036222050527  0.036228125102  0.806520300751
  0.880468750000  0.040207461310  0.040213518877  0.803403649851
  0.883984375000  0.044245994679  0.044252035295  0.800287793455
  0.887500000000  0.048337597954  0.048343621709  0.797174714732
  0.891015625000  0.052482218195  0.052488225213  0.794066117861
  0.894531250000  0.056679802424  0.056685792863  0.790963495648
  0.898046875000  0.060930297840  0.060936271893  0.787868185771
  0.901562500000  0.065233652039  0.065239609933  0.784781418418
  0.905078125000  0.069589813235  0.069595755230  0.781704357616
  0.908593750000  0.073998730478  0.074004656869  0.778638138125
  0.912109375000  0.078460353877  0.078466264994  0.775583899439
  0.915625000000  0.082974634820  0.082980531024  0.772542818033
  0.919140625000  0.087541526193  0.087547407880  0.769516138605
  0.922656250000  0.092160982594  0.092166850193  0.766505204481
  0.926171875000  0.096832960556  0.096838814528  0.763511486568
  0.929687500000  0.101557418756  0.101563259593  0.760536609018
  0.933203125000  0.106334318228  0.106340146454  0.757582367921
  0.936718750000  0.111163622573  0.111169438743  0.754650736471
  0.940234375000  0.116045298162  0.116051102860  0.751743845719
  0.943750000000  0.120979314339  0.120985108179  0.748863923492
  0.947265625000  0.125965643620  0.125971427244  0.746013164610
  0.950781250000  0.131004261884  0.131010035962  0.743193492095
  0.954296875000  0.136095148565  0.136100913793  0.740406151307
  0.957812500000  0.141238286830  0.141244043931  0.737651057276
  0.961328125000  0.146433663766  0.146439413485  0.734925794130
  0.964843750000  0.151681270541  0.151687013649  0.732224155866
  0.968359375000  0.156981102582  0.156986839872  0.729534146473
  0.971875000000  0.162333159728  0.162338892013  0.726835477531
  0.975390625000  0.167737446385  0.167743174500  0.724096902421
  0.978906250000  0.173193971674  0.173199696472  0.721274321794
  0.982421875000  0.178702749571  0.178708471922  0.718311531836
  0.985937500000  0.184263799036  0.184269519828  0.715146479448
  0.989453125000  0.189877144143  0.189882864279  0.711725873495
  0.992968750000  0.195542814194  0.195548534589  0.708028017675
  0.996484375000  0.201260843827  0.201266565410  0.704086551426
  1.000000000000  0.207031273120  0.207019829030  0.700000000094
