radius      S_expected         S_actual            Error 
  0.100000000000  0.000000000000  0.000000000000  1.148787315503
  0.103515625000  0.000141651243  0.000141583930  1.135314858904
  0.107031250000  0.000278888831  0.000278758187  1.122044164395
  0.110546875000  0.000410613861  0.000410426066  1.108975809434
  0.114062500000  0.000535827752  0.000535590880  1.096110329200
  0.117578125000  0.000653649788  0.000653373432  1.083448195447
  0.121093750000  0.000763330910  0.000763025767  1.070989796986
  0.124609375000  0.000864263418  0.000863940840  1.058735422226
  0.128125000000  0.000955986408  0.000955657964  1.046685244146
  0.131640625000  0.001038187035  0.001037864085  1.034839307945
  0.135156250000  0.001110697796  0.001110391110  1.023197521534
  0.138671875000  0.001173490227  0.001173209660  1.011759648925
  0.142187500000  0.001226665525  0.001226419755  1.000525306480
  0.145703125000  0.001270442662  0.001270239001  0.989493961881
  0.149218750000  0.001305144624  0.001304988900  0.978664935644
  0.152734375000  0.001331183419  0.001331079925  0.968037404894
  0.156250000000  0.001349044440  0.001348995947  0.957610409124
  0.159765625000  0.001359270769  0.001359278592  0.947382857603
  0.163281250000  0.001362447881  0.001362511988  0.937353538099
  0.166796875000  0.001359189177  0.001359308330  0.927521126586
  0.170312500000  0.001350122636  0.001350294555  0.917884197633
  0.173828125000  0.001335878839  0.001336100377  0.908441235151
  0.177343750000  0.001317080486  0.001317347808  0.899190643274
  0.180859375000  0.001294333487  0.001294642247  0.890130757116
  0.184375000000  0.001268219627  0.001268565127  0.881259853226
  0.187890625000  0.001239290748  0.001239668093  0.872576159583
  0.191406250000  0.001208064370  0.001208468602  0.864077865011
  0.194921875000  0.001175020618  0.001175446829  0.855763127926
  0.198437500000  0.001140600327  0.001141043752  0.847630084356
  0.201953125000  0.001105204154  0.001105660255  0.839676855204
  0.205468750000  0.001069192581  0.001069657098  0.831901552746
  0.208984375000  0.001032886615  0.001033355613  0.824302286365
  0.212500000000  0.000996569083  0.000997038979  0.816877167555
  0.216015625000  0.000960486371  0.000960953946  0.809624314224
  0.219531250000  0.000924850491  0.000925312900  0.802541854333
  0.223046875000  0.000889841385  0.000890296147  0.795627928932
  0.226562500000  0.000855609369  0.000856054358  0.788880694638
  0.230078125000  0.000822277635  0.000822711062  0.782298325597
  0.233593750000  0.000789944771  0.000790365166  0.775879015013
  0.237109375000  0.000758687233  0.000759093416  0.769620976252
  0.240625000000  0.000728561730  0.000728952792  0.763522443618
  0.244140625000  0.000699607509  0.000699982783  0.757581672804
  0.247656250000  0.000671848501  0.000672207536  0.751796941091
  0.251171875000  0.000645295327  0.000645637864  0.746166547322
  0.254687500000  0.000619947152  0.000620273099  0.740688811689
  0.258203125000  0.000595793381  0.000596102792  0.735362075364
  0.261718750000  0.000572815209  0.000573108259  0.730184700003
  0.265234375000  0.000550987008  0.000551263978  0.725155067158
  0.268750000000  0.000530277582  0.000530538840  0.720271577596
  0.272265625000  0.000510651280  0.000510897260  0.715532650576
  0.275781250000  0.000492068974  0.000492300168  0.710936723071
  0.279296875000  0.000474488928  0.000474705871  0.706482248970
  0.282812500000  0.000457867552  0.000458070808  0.702167698264
  0.286328125000  0.000442160049  0.000442350206  0.697991556220
  0.289843750000  0.000427320982  0.000427498639  0.693952322569
  0.293359375000  0.000413304747  0.000413470510  0.690048510696
  0.296875000000  0.000400065981  0.000400220455  0.686278646846
  0.300390625000  0.000387559894  0.000387703679  0.682641269356
  0.303906250000  0.000375742553  0.000375876237  0.679134927907
  0.307421875000  0.000364571102  0.000364695263  0.675758182799
  0.310937500000  0.000354003948  0.000354119146  0.672509604260
  0.314453125000  0.000344000899  0.000344107676  0.669387771784
  0.317968750000  0.000334523272  0.000334622149  0.666391273491
  0.321484375000  0.000325533966  0.000325625445  0.663518705530
  0.325000000000  0.000316997517  0.000317082076  0.660768671504
  0.328515625000  0.000308880123  0.000308958221  0.658139781925
  0.332031250000  0.000301149658  0.000301221728  0.655630653708
  0.335546875000  0.000293775665  0.000293842118  0.653239909682
  0.339062500000  0.000286729336  0.000286790562  0.650966178138
  0.342578125000  0.000279983488  0.000280039856  0.648808092400
  0.346093750000  0.000273512523  0.000273564378  0.646764290427
  0.349609375000  0.000267292384  0.000267340053  0.644833414435
  0.353125000000  0.000261300508  0.000261344297  0.643014110546
  0.356640625000  0.000255515770  0.000255555966  0.641305028464
  0.360156250000  0.000249918431  0.000249955302  0.639704821165
  0.363671875000  0.000244490074  0.000244523872  0.638212144618
  0.367187500000  0.000239213554  0.000239244513  0.636825657515
  0.370703125000  0.000234072928  0.000234101267  0.635544021034
  0.374218750000  0.000229053404  0.000229079326  0.634365898604
  0.377734375000  0.000224141279  0.000224164975  0.633289955703
  0.381250000000  0.000219323882  0.000219345527  0.632314859659
  0.384765625000  0.000214589517  0.000214609274  0.631439279476
  0.388281250000  0.000209927409  0.000209945430  0.630661885668
  0.391796875000  0.000205327649  0.000205344075  0.629981350110
  0.395312500000  0.000200781146  0.000200796108  0.629396345899
  0.398828125000  0.000196279576  0.000196293194  0.628905547232
  0.402343750000  0.000191815335  0.000191827721  0.628507629290
  0.405859375000  0.000187381493  0.000187392749  0.628201268131
  0.409375000000  0.000182971754  0.000182981975  0.627985140603
  0.412890625000  0.000178580410  0.000178589684  0.627857924252
  0.416406250000  0.000174202307  0.000174210716  0.627818297252
  0.419921875000  0.000169832807  0.000169840424  0.627864938331
  0.423437500000  0.000165467752  0.000165474647  0.627996526715
  0.426953125000  0.000161103432  0.000161109667  0.628211742069
  0.430468750000  0.000156736554  0.000156742187  0.628509264452
  0.433984375000  0.000152364211  0.000152369296  0.628887774274
  0.437500000000  0.000147983860  0.000147988445  0.629345952255
  0.441015625000  0.000143593289  0.000143597420  0.629882479399
  0.444531250000  0.000139190597  0.000139194315  0.630496036960
  0.448046875000  0.000134774173  0.000134777515  0.631185306422
  0.451562500000  0.000130342669  0.000130345671  0.631948969473
  0.455078125000  0.000125894986  0.000125897679  0.632785707992
  0.458593750000  0.000121430252  0.000121432664  0.633694204030
  0.462109375000  0.000116947806  0.000116949964  0.634673139802
  0.465625000000  0.000112447180  0.000112449109  0.635721197669
  0.469140625000  0.000107928087  0.000107929809  0.636837060136
  0.472656250000  0.000103390404  0.000103391938  0.638019409842
  0.476171875000  0.000098834159  0.000098835525  0.639266929552
  0.479687500000  0.000094259523  0.000094260737  0.640578302152
  0.483203125000  0.000089666791  0.000089667867  0.641952210650
  0.486718750000  0.000085056377  0.000085057330  0.643387338161
  0.490234375000  0.000080428803  0.000080429646  0.644882367915
  0.493750000000  0.000075784690  0.000075785433  0.646435983246
  0.497265625000  0.000071124745  0.000071125399  0.648046867591
  0.500781250000  0.000066449760  0.000066450334  0.649713704487
  0.504296875000  0.000061760599  0.000061761102  0.651435177567
  0.507812500000  0.000057058194  0.000057058632  0.653209970553
  0.511328125000  0.000052343535  0.000052343915  0.655036767260
  0.514843750000  0.000047617667  0.000047617995  0.656914251581
  0.518359375000  0.000042881683  0.000042881964  0.658841107491
  0.521875000000  0.000038136719  0.000038136958  0.660816019036
  0.525390625000  0.000033383946  0.000033384148  0.662837670329
  0.528906250000  0.000028624571  0.000028624737  0.664904745544
  0.532421875000  0.000023859824  0.000023859958  0.667015928910
  0.535937500000  0.000019090960  0.000019091065  0.669169904700
  0.539453125000  0.000014319254  0.000014319331  0.671365357229
  0.542968750000  0.000009545992  0.000009546043  0.673600970843
  0.546484375000  0.000004772473  0.000004772498  0.675875429910
  0.550000000000  0.000000000000  0.000000000000  0.678187418817
  0.553515625000 -0.000004770121 -0.000004770146  0.680535621954
  0.557031250000 -0.000009536585 -0.000009536636  0.682918723712
  0.560546875000 -0.000014298095 -0.000014298172  0.685335408469
  0.564062500000 -0.000019053362 -0.000019053467  0.687784360590
  0.567578125000 -0.000023801112 -0.000023801247  0.690264264407
  0.571093750000 -0.000028540089 -0.000028540255  0.692773804221
  0.574609375000 -0.000033269058 -0.000033269259  0.695311664290
  0.578125000000 -0.000037986812 -0.000037987052  0.697876528820
  0.581640625000 -0.000042692176 -0.000042692457  0.700467081962
  0.585156250000 -0.000047384008 -0.000047384336  0.703082007799
  0.588671875000 -0.000052061211 -0.000052061591  0.705719990346
  0.592187500000 -0.000056722730 -0.000056723168  0.708379713541
  0.595703125000 -0.000061367567 -0.000061368069  0.711059861236
  0.599218750000 -0.000065994777 -0.000065995351  0.713759117198
  0.602734375000 -0.000070603482 -0.000070604136  0.716476165100
  0.606250000000 -0.000075192873 -0.000075193616  0.719209688519
  0.609765625000 -0.000079762220 -0.000079763063  0.721958370926
  0.613281250000 -0.000084310879 -0.000084311832  0.724720895692
  0.616796875000 -0.000088838297 -0.000088839374  0.727495946072
  0.620312500000 -0.000093344027 -0.000093345240  0.730282205212
  0.623828125000 -0.000097827730 -0.000097829096  0.733078356137
  0.627343750000 -0.000102289193 -0.000102290727  0.735883081751
  0.630859375000 -0.000106728331 -0.000106730053  0.738695064830
  0.634375000000 -0.000111145206 -0.000111147135  0.741512988019
  0.637890625000 -0.000115540035 -0.000115542194  0.744335533821
  0.641406250000 -0.000119913207 -0.000119915619  0.747161384596
  0.644921875000 -0.000124265291 -0.000124267984  0.749989222547
  0.648437500000 -0.000128597059 -0.000128600060  0.752817729713
  0.651953125000 -0.000132909496 -0.000132912838  0.755645587955
  0.655468750000 -0.000137203820 -0.000137207538  0.758471478943
  0.658984375000 -0.000141481503 -0.000141485634  0.761294084139
  0.662500000000 -0.000145744286 -0.000145748872  0.764112084775
  0.666015625000 -0.000149994205 -0.000149999290  0.766924161835
  0.669531250000 -0.000154233610 -0.000154239243  0.769728996025
  0.673046875000 -0.000158465193 -0.000158471427  0.772525267741
  0.676562500000 -0.000162692010 -0.000162698904  0.775311657039
  0.680078125000 -0.000166917514 -0.000166925131  0.778086843590
  0.683593750000 -0.000171145577 -0.000171153986  0.780849506636
  0.687109375000 -0.000175380529 -0.000175389804  0.783598324942
  0.690625000000 -0.000179627186 -0.000179637407  0.786331976731
  0.694140625000 -0.000183890884 -0.000183902140  0.789049139626
  0.697656250000 -0.000188177523 -0.000188189908  0.791748490573
  0.701171875000 -0.000192493597 -0.000192507215  0.794428705763
  0.704687500000 -0.000196846241 -0.000196861203  0.797088460539
  0.708203125000 -0.000201243275 -0.000201259702  0.799726429300
  0.711718750000 -0.000205693244 -0.000205711265  0.802341285387
  0.715234375000 -0.000210205469 -0.000210225226  0.804931700967
  0.718750000000 -0.000214790099 -0.000214811743  0.807496346900
  0.722265625000 -0.000219458155 -0.000219481851  0.810033892590
  0.725781250000 -0.000224221593 -0.000224247516  0.812543005831
  0.729296875000 -0.000229093351 -0.000229121690  0.815022352632
  0.732812500000 -0.000234087410 -0.000234118370  0.817470597030
  0.736328125000 -0.000239218851 -0.000239252649  0.819886400885
  0.739843750000 -0.000244503914 -0.000244540785  0.822268423662
  0.743359375000 -0.000249960058 -0.000250000253  0.824615322189
  0.746875000000 -0.000255606019 -0.000255649808  0.826925750397
  0.750390625000 -0.000261461874 -0.000261509543  0.829198359048
  0.753906250000 -0.000267549095 -0.000267600950  0.831431795427
  0.757421875000 -0.000273890604 -0.000273946971  0.833624703026
  0.760937500000 -0.000280510834 -0.000280572060  0.835775721194
  0.764453125000 -0.000287435770 -0.000287502223  0.837883484766
  0.767968750000 -0.000294692999 -0.000294765069  0.839946623671
  0.771484375000 -0.000302311745 -0.000302389843  0.841963762498
  0.775000000000 -0.000310322899 -0.000310407459  0.843933520054
  0.778515625000 -0.000318759035 -0.000318850514  0.845854508874
  0.782031250000 -0.000327654417 -0.000327753295  0.847725334714
  0.785546875000 -0.000337044991 -0.000337151768  0.849544596000
  0.789062500000 -0.000346968353 -0.000347083551  0.851310883262
  0.792578125000 -0.000357463697 -0.000357587859  0.853022778515
  0.796093750000 -0.000368571745 -0.000368705430  0.854678854623
  0.799609375000 -0.000380334633 -0.000380478417  0.856277674623
  0.803125000000 -0.000392795775 -0.000392950249  0.857817791016
  0.806640625000 -0.000405999681 -0.000406165444  0.859297745025
  0.810156250000 -0.000419991728 -0.000420169385  0.860716065829
  0.813671875000 -0.000434817882 -0.000435008038  0.862071269754
  0.817187500000 -0.000450524360 -0.000450727616  0.863361859456
  0.820703125000 -0.000467157225 -0.000467374167  0.864586323062
  0.824218750000 -0.000484761905 -0.000484993099  0.865743133306
  0.827734375000 -0.000503382631 -0.000503628611  0.866830746650
  0.831250000000 -0.000523061782 -0.000523323039  0.867847602390
  0.834765625000 -0.000543839126 -0.000544116097  0.868792121778
  0.838281250000 -0.000565750956 -0.000566044006  0.869662707153
  0.841796875000 -0.000588829095 -0.000589138506  0.870457741090
  0.845312500000 -0.000613099788 -0.000613425735  0.871175585608
  0.848828125000 -0.000638582436 -0.000638924974  0.871814581418
  0.852343750000 -0.000665288203 -0.000665647238  0.872373047261
  0.855859375000 -0.000693218456 -0.000693593730  0.872849279350
  0.859375000000 -0.000722363065 -0.000722754127  0.873241550932
  0.862890625000 -0.000752698532 -0.000753104715  0.873548112021
  0.866406250000 -0.000784185980 -0.000784606374  0.873767189315
  0.869921875000 -0.000816768989 -0.000817202416  0.873896986353
  0.873437500000 -0.000850371301 -0.000850816290  0.873935683942
  0.876953125000 -0.000884894417 -0.000885349179  0.873881440904
  0.880468750000 -0.000920215108 -0.000920677517  0.873732395194
  0.883984375000 -0.000956182880 -0.000956650456  0.873486665433
  0.887500000000 -0.000992617448 -0.000993087344  0.873142352930
  0.891015625000 -0.001029306272 -0.001029775270  0.872697544223
  0.894531250000 -0.001066002231 -0.001066466749  0.872150314222
  0.898046875000 -0.001102421536 -0.001102877637  0.871498729984
  0.901562500000 -0.001138241957 -0.001138685383  0.870740855203
  0.905078125000 -0.001173101516 -0.001173527726  0.869874755428
  0.908593750000 -0.001206597747 -0.001207001979  0.868898504077
  0.912109375000 -0.001238287681 -0.001238665026  0.867810189253
  0.915625000000 -0.001267688700 -0.001268034200  0.866607921386
  0.919140625000 -0.001294280413 -0.001294589173  0.865289841687
  0.922656250000 -0.001317507705 -0.001317775028  0.863854131385
  0.926171875000 -0.001336785100 -0.001337006639  0.862299021692
  0.929687500000 -0.001351502560 -0.001351674479  0.860622804394
  0.933203125000 -0.001361032811 -0.001361151964  0.858823842969
  0.936718750000 -0.001364740246 -0.001364804352  0.856900584034
  0.940234375000 -0.001361991405 -0.001361999228  0.854851568960
  0.943750000000 -0.001352166968 -0.001352118475  0.852675445381
  0.947265625000 -0.001334675106 -0.001334571611  0.850370978349
  0.950781250000 -0.001308965982 -0.001308810258  0.847937060799
  0.954296875000 -0.001274547076 -0.001274343415  0.845372723020
  0.957812500000 -0.001230998926 -0.001230753156  0.842677140752
  0.961328125000 -0.001177990816 -0.001177710248  0.839849641567
  0.964843750000 -0.001115295833 -0.001114989147  0.836889709192
  0.968359375000 -0.001042804699 -0.001042481748  0.833796985437
  0.971875000000 -0.000960537732 -0.000960209288  0.830571269466
  0.975390625000 -0.000868654320 -0.000868331742  0.827212514181
  0.978906250000 -0.000767459306 -0.000767154162  0.823720819579
  0.982421875000 -0.000657405802 -0.000657129446  0.820096423041
  0.985937500000 -0.000539094029 -0.000538857156  0.816339686582
  0.989453125000 -0.000413265961 -0.000413078166  0.812451081243
  0.992968750000 -0.000280795726 -0.000280665082  0.808431168874
  0.996484375000 -0.000142675893 -0.000142608580  0.804280581680
  1.000000000000 -0.000000000000 -0.000000000000  0.800000000000
