radius      S_expected         S_actual            Error 
  0.000000000000  0.000000000000  0.000244140625  0.000244140625
  0.007812500000  0.046508789062  0.046386718750  0.000122070312
  0.015625000000  0.092285156250  0.092163085938  0.000122070312
  0.023437500000  0.137329101562  0.137207031250  0.000122070312
  0.031250000000  0.181640625000  0.181518554688  0.000122070312
  0.039062500000  0.225219726562  0.225097656250  0.000122070312
  0.046875000000  0.268066406250  0.267944335938  0.000122070312
  0.054687500000  0.310180664062  0.310058593750  0.000122070312
  0.062500000000  0.351562500000  0.351440429688  0.000122070312
  0.070312500000  0.392211914062  0.392089843750  0.000122070312
  0.078125000000  0.432128906250  0.432006835938  0.000122070312
  0.085937500000  0.471313476562  0.471191406250  0.000122070312
  0.093750000000  0.509765625000  0.509643554688  0.000122070312
  0.101562500000  0.547485351562  0.547363281250  0.000122070312
  0.109375000000  0.584472656250  0.584350585938  0.000122070312
  0.117187500000  0.620727539062  0.620605468750  0.000122070312
  0.125000000000  0.656250000000  0.656127929688  0.000122070312
  0.132812500000  0.691040039062  0.690917968750  0.000122070312
  0.140625000000  0.725097656250  0.724975585938  0.000122070312
  0.148437500000  0.758422851562  0.758300781250  0.000122070312
  0.156250000000  0.791015625000  0.790893554688  0.000122070312
  0.164062500000  0.822875976562  0.822753906250  0.000122070312
  0.171875000000  0.854003906250  0.853881835938  0.000122070312
  0.179687500000  0.884399414062  0.884277343750  0.000122070312
  0.187500000000  0.914062500000  0.913940429688  0.000122070312
  0.195312500000  0.942993164062  0.942871093750  0.000122070312
  0.203125000000  0.971191406250  0.971069335938  0.000122070312
  0.210937500000  0.998657226562  0.998535156250  0.000122070312
  0.218750000000  1.025390625000  1.025268554688  0.000122070312
  0.226562500000  1.051391601562  1.051269531250  0.000122070312
  0.234375000000  1.076660156250  1.076538085938  0.000122070312
  0.242187500000  1.101196289062  1.101074218750  0.000122070312
  0.250000000000  1.125000000000  1.124877929688  0.000122070312
  0.257812500000  1.148071289062  1.147949218750  0.000122070312
  0.265625000000  1.170410156250  1.170288085938  0.000122070312
  0.273437500000  1.192016601562  1.191894531250  0.000122070312
  0.281250000000  1.212890625000  1.212768554688  0.000122070312
  0.289062500000  1.233032226562  1.232910156250  0.000122070312
  0.296875000000  1.252441406250  1.252319335938  0.000122070312
  0.304687500000  1.271118164062  1.270996093750  0.000122070312
  0.312500000000  1.289062500000  1.288940429688  0.000122070312
  0.320312500000  1.306274414062  1.306152343750  0.000122070312
  0.328125000000  1.322753906250  1.322631835938  0.000122070312
  0.335937500000  1.338500976562  1.338378906250  0.000122070312
  0.343750000000  1.353515625000  1.353393554688  0.000122070312
  0.351562500000  1.367797851562  1.367675781250  0.000122070312
  0.359375000000  1.381347656250  1.381225585938  0.000122070312
  0.367187500000  1.394165039062  1.394042968750  0.000122070312
  0.375000000000  1.406250000000  1.406127929688  0.000122070312
  0.382812500000  1.417602539062  1.417480468750  0.000122070312
  0.390625000000  1.428222656250  1.428100585938  0.000122070312
  0.398437500000  1.438110351562  1.437988281250  0.000122070312
  0.406250000000  1.447265625000  1.447143554688  0.000122070312
  0.414062500000  1.455688476562  1.455566406250  0.000122070312
  0.421875000000  1.463378906250  1.463256835938  0.000122070312
  0.429687500000  1.470336914062  1.470214843750  0.000122070312
  0.437500000000  1.476562500000  1.476440429688  0.000122070312
  0.445312500000  1.482055664062  1.481933593750  0.000122070312
  0.453125000000  1.486816406250  1.486694335938  0.000122070312
  0.460937500000  1.490844726562  1.490722656250  0.000122070312
  0.468750000000  1.494140625000  1.494018554688  0.000122070312
  0.476562500000  1.496704101562  1.496582031250  0.000122070312
  0.484375000000  1.498535156250  1.498413085938  0.000122070312
  0.492187500000  1.499633789062  1.499511718750  0.000122070312
  0.500000000000  1.500000000000  1.499877929688  0.000122070312
  0.507812500000  1.499633789062  1.499511718750  0.000122070312
  0.515625000000  1.498535156250  1.498413085938  0.000122070312
  0.523437500000  1.496704101562  1.496582031250  0.000122070312
  0.531250000000  1.494140625000  1.494018554688  0.000122070312
  0.539062500000  1.490844726562  1.490722656250  0.000122070312
  0.546875000000  1.486816406250  1.486694335938  0.000122070312
  0.554687500000  1.482055664062  1.481933593750  0.000122070312
  0.562500000000  1.476562500000  1.476440429688  0.000122070312
  0.570312500000  1.470336914062  1.470214843750  0.000122070312
  0.578125000000  1.463378906250  1.463256835938  0.000122070312
  0.585937500000  1.455688476562  1.455566406250  0.000122070312
  0.593750000000  1.447265625000  1.447143554688  0.000122070312
  0.601562500000  1.438110351562  1.437988281250  0.000122070312
  0.609375000000  1.428222656250  1.428100585938  0.000122070312
  0.617187500000  1.417602539062  1.417480468750  0.000122070312
  0.625000000000  1.406250000000  1.406127929688  0.000122070312
  0.632812500000  1.394165039062  1.394042968750  0.000122070312
  0.640625000000  1.381347656250  1.381225585938  0.000122070312
  0.648437500000  1.367797851562  1.367675781250  0.000122070312
  0.656250000000  1.353515625000  1.353393554688  0.000122070312
  0.664062500000  1.338500976562  1.338378906250  0.000122070312
  0.671875000000  1.322753906250  1.322631835938  0.000122070312
  0.679687500000  1.306274414062  1.306152343750  0.000122070312
  0.687500000000  1.289062500000  1.288940429688  0.000122070312
  0.695312500000  1.271118164062  1.270996093750  0.000122070312
  0.703125000000  1.252441406250  1.252319335938  0.000122070312
  0.710937500000  1.233032226562  1.232910156250  0.000122070312
  0.718750000000  1.212890625000  1.212768554688  0.000122070312
  0.726562500000  1.192016601562  1.191894531250  0.000122070312
  0.734375000000  1.170410156250  1.170288085938  0.000122070312
  0.742187500000  1.148071289062  1.147949218750  0.000122070312
  0.750000000000  1.125000000000  1.124877929688  0.000122070312
  0.757812500000  1.101196289062  1.101074218750  0.000122070312
  0.765625000000  1.076660156250  1.076538085938  0.000122070312
  0.773437500000  1.051391601562  1.051269531250  0.000122070312
  0.781250000000  1.025390625000  1.025268554688  0.000122070312
  0.789062500000  0.998657226562  0.998535156250  0.000122070312
  0.796875000000  0.971191406250  0.971069335938  0.000122070312
  0.804687500000  0.942993164062  0.942871093750  0.000122070312
  0.812500000000  0.914062500000  0.913940429688  0.000122070312
  0.820312500000  0.884399414062  0.884277343750  0.000122070312
  0.828125000000  0.854003906250  0.853881835938  0.000122070312
  0.835937500000  0.822875976562  0.822753906250  0.000122070312
  0.843750000000  0.791015625000  0.790893554688  0.000122070312
  0.851562500000  0.758422851562  0.758300781250  0.000122070312
  0.859375000000  0.725097656250  0.724975585938  0.000122070312
  0.867187500000  0.691040039062  0.690917968750  0.000122070312
  0.875000000000  0.656250000000  0.656127929688  0.000122070312
  0.882812500000  0.620727539062  0.620605468750  0.000122070312
  0.890625000000  0.584472656250  0.584350585938  0.000122070312
  0.898437500000  0.547485351562  0.547363281250  0.000122070312
  0.906250000000  0.509765625000  0.509643554688  0.000122070312
  0.914062500000  0.471313476562  0.471191406250  0.000122070312
  0.921875000000  0.432128906250  0.432006835938  0.000122070312
  0.929687500000  0.392211914062  0.392089843750  0.000122070312
  0.937500000000  0.351562500000  0.351440429688  0.000122070312
  0.945312500000  0.310180664062  0.310058593750  0.000122070312
  0.953125000000  0.268066406250  0.267944335938  0.000122070312
  0.960937500000  0.225219726562  0.225097656250  0.000122070312
  0.968750000000  0.181640625000  0.181518554688  0.000122070312
  0.976562500000  0.137329101562  0.137207031250  0.000122070312
  0.984375000000  0.092285156250  0.092163085938  0.000122070312
  0.992187500000  0.046508789062  0.046386718750  0.000122070312
  1.000000000000  0.000000000000  0.000000000000  0.100000001490
