radius      S_expected         S_actual            Error 
  0.100000000000 -0.000000000000 -0.000000000000  1.801496739345
  0.102343750000  0.000006562335  0.000006562478  1.801492851211
  0.104687500000  0.000012875270  0.000012875539  1.801488963021
  0.107031250000  0.000018950007  0.000018950386  1.801485074775
  0.109375000000  0.000024796985  0.000024797459  1.801481186473
  0.111718750000  0.000030425945  0.000030426503  1.801477298114
  0.114062500000  0.000035845994  0.000035846625  1.801473409700
  0.116406250000  0.000041065662  0.000041066356  1.801469521229
  0.118750000000  0.000046092946  0.000046093694  1.801465632702
  0.121093750000  0.000050935359  0.000050936154  1.801461744120
  0.123437500000  0.000055599965  0.000055600801  1.801457855482
  0.125781250000  0.000060093422  0.000060094291  1.801453966788
  0.128125000000  0.000064422005  0.000064422903  1.801450078038
  0.130468750000  0.000068591641  0.000068592564  1.801446189232
  0.132812500000  0.000072607935  0.000072608878  1.801442300371
  0.135156250000  0.000076476192  0.000076477150  1.801438411454
  0.137500000000  0.000080201439  0.000080202410  1.801434522481
  0.139843750000  0.000083788446  0.000083789426  1.801430633453
  0.142187500000  0.000087241742  0.000087242730  1.801426744369
  0.144531250000  0.000090565635  0.000090566628  1.801422855230
  0.146875000000  0.000093764224  0.000093765219  1.801418966036
  0.149218750000  0.000096841413  0.000096842408  1.801415076786
  0.151562500000  0.000099800924  0.000099801919  1.801411187480
  0.153906250000  0.000102646312  0.000102647304  1.801407298120
  0.156250000000  0.000105380969  0.000105381957  1.801403408704
  0.158593750000  0.000108008142  0.000108009125  1.801399519233
  0.160937500000  0.000110530933  0.000110531910  1.801395629707
  0.163281250000  0.000112952316  0.000112953286  1.801391740126
  0.165625000000  0.000115275140  0.000115276102  1.801387850490
  0.167968750000  0.000117502138  0.000117503091  1.801383960799
  0.170312500000  0.000119635931  0.000119636875  1.801380071053
  0.172656250000  0.000121679038  0.000121679973  1.801376181252
  0.175000000000  0.000123633882  0.000123634806  1.801372291396
  0.177343750000  0.000125502788  0.000125503702  1.801368401486
  0.179687500000  0.000127288000  0.000127288902  1.801364511521
  0.182031250000  0.000128991674  0.000128992565  1.801360621501
  0.184375000000  0.000130615890  0.000130616770  1.801356731426
  0.186718750000  0.000132162654  0.000132163522  1.801352841297
  0.189062500000  0.000133633900  0.000133634756  1.801348951113
  0.191406250000  0.000135031497  0.000135032340  1.801345060874
  0.193750000000  0.000136357247  0.000136358078  1.801341170582
  0.196093750000  0.000137612894  0.000137613714  1.801337280234
  0.198437500000  0.000138800126  0.000138800933  1.801333389833
  0.200781250000  0.000139920572  0.000139921366  1.801329499377
  0.203125000000  0.000140975812  0.000140976594  1.801325608866
  0.205468750000  0.000141967375  0.000141968144  1.801321718302
  0.207812500000  0.000142896742  0.000142897499  1.801317827683
  0.210156250000  0.000143765351  0.000143766096  1.801313937010
  0.212500000000  0.000144574594  0.000144575327  1.801310046283
  0.214843750000  0.000145325823  0.000145326543  1.801306155502
  0.217187500000  0.000146020350  0.000146021059  1.801302264667
  0.219531250000  0.000146659451  0.000146660147  1.801298373779
  0.221875000000  0.000147244362  0.000147245046  1.801294482836
  0.224218750000  0.000147776288  0.000147776961  1.801290591839
  0.226562500000  0.000148256399  0.000148257060  1.801286700788
  0.228906250000  0.000148685833  0.000148686483  1.801282809684
  0.231250000000  0.000149065699  0.000149066337  1.801278918526
  0.233593750000  0.000149397076  0.000149397703  1.801275027314
  0.235937500000  0.000149681013  0.000149681629  1.801271136049
  0.238281250000  0.000149918535  0.000149919139  1.801267244730
  0.240625000000  0.000150110639  0.000150111232  1.801263353358
  0.242968750000  0.000150258297  0.000150258879  1.801259461932
  0.245312500000  0.000150362459  0.000150363030  1.801255570453
  0.247656250000  0.000150424049  0.000150424610  1.801251678920
  0.250000000000  0.000150443972  0.000150444523  1.801247787334
  0.252343750000  0.000150423108  0.000150423649  1.801243895694
  0.254687500000  0.000150362320  0.000150362851  1.801240004002
  0.257031250000  0.000150262448  0.000150262969  1.801236112256
  0.259375000000  0.000150124316  0.000150124827  1.801232220457
  0.261718750000  0.000149948726  0.000149949227  1.801228328605
  0.264062500000  0.000149736464  0.000149736956  1.801224436700
  0.266406250000  0.000149488300  0.000149488782  1.801220544742
  0.268750000000  0.000149204985  0.000149205458  1.801216652730
  0.271093750000  0.000148887255  0.000148887719  1.801212760666
  0.273437500000  0.000148535831  0.000148536286  1.801208868549
  0.275781250000  0.000148151418  0.000148151864  1.801204976380
  0.278125000000  0.000147734707  0.000147735145  1.801201084157
  0.280468750000  0.000147286376  0.000147286804  1.801197191882
  0.282812500000  0.000146807087  0.000146807507  1.801193299554
  0.285156250000  0.000146297491  0.000146297903  1.801189407173
  0.287500000000  0.000145758225  0.000145758629  1.801185514740
  0.289843750000  0.000145189915  0.000145190310  1.801181622254
  0.292187500000  0.000144593173  0.000144593561  1.801177729716
  0.294531250000  0.000143968602  0.000143968982  1.801173837125
  0.296875000000  0.000143316792  0.000143317164  1.801169944482
  0.299218750000  0.000142638323  0.000142638687  1.801166051787
  0.301562500000  0.000141933763  0.000141934120  1.801162159039
  0.303906250000  0.000141203672  0.000141204022  1.801158266239
  0.306250000000  0.000140448598  0.000140448941  1.801154373387
  0.308593750000  0.000139669081  0.000139669417  1.801150480482
  0.310937500000  0.000138865651  0.000138865980  1.801146587526
  0.313281250000  0.000138038828  0.000138039150  1.801142694517
  0.315625000000  0.000137189125  0.000137189440  1.801138801456
  0.317968750000  0.000136317044  0.000136317353  1.801134908344
  0.320312500000  0.000135423082  0.000135423384  1.801131015179
  0.322656250000  0.000134507725  0.000134508020  1.801127121963
  0.325000000000  0.000133571451  0.000133571741  1.801123228694
  0.327343750000  0.000132614733  0.000132615016  1.801119335374
  0.329687500000  0.000131638034  0.000131638312  1.801115442002
  0.332031250000  0.000130641812  0.000130642083  1.801111548579
  0.334375000000  0.000129626515  0.000129626780  1.801107655104
  0.336718750000  0.000128592586  0.000128592846  1.801103761577
  0.339062500000  0.000127540462  0.000127540716  1.801099867999
  0.341406250000  0.000126470571  0.000126470819  1.801095974369
  0.343750000000  0.000125383337  0.000125383580  1.801092080687
  0.346093750000  0.000124279178  0.000124279415  1.801088186955
  0.348437500000  0.000123158502  0.000123158734  1.801084293171
  0.350781250000  0.000122021717  0.000122021944  1.801080399335
  0.353125000000  0.000120869220  0.000120869442  1.801076505448
  0.355468750000  0.000119701406  0.000119701622  1.801072611510
  0.357812500000  0.000118518662  0.000118518874  1.801068717521
  0.360156250000  0.000117321371  0.000117321578  1.801064823481
  0.362500000000  0.000116109912  0.000116110114  1.801060929390
  0.364843750000  0.000114884656  0.000114884854  1.801057035247
  0.367187500000  0.000113645971  0.000113646164  1.801053141054
  0.369531250000  0.000112394220  0.000112394408  1.801049246810
  0.371875000000  0.000111129760  0.000111129944  1.801045352514
  0.374218750000  0.000109852946  0.000109853125  1.801041458168
  0.376562500000  0.000108564125  0.000108564300  1.801037563771
  0.378906250000  0.000107263642  0.000107263813  1.801033669324
  0.381250000000  0.000105951838  0.000105952005  1.801029774825
  0.383593750000  0.000104629048  0.000104629211  1.801025880276
  0.385937500000  0.000103295604  0.000103295763  1.801021985677
  0.388281250000  0.000101951834  0.000101951988  1.801018091027
  0.390625000000  0.000100598060  0.000100598211  1.801014196326
  0.392968750000  0.000099234605  0.000099234752  1.801010301575
  0.395312500000  0.000097861783  0.000097861926  1.801006406773
  0.397656250000  0.000096479906  0.000096480046  1.801002511921
  0.400000000000  0.000095089285  0.000095089421  1.800998617019
  0.402343750000  0.000093690223  0.000093690356  1.800994722066
  0.404687500000  0.000092283024  0.000092283153  1.800990827063
  0.407031250000  0.000090867984  0.000090868110  1.800986932010
  0.409375000000  0.000089445401  0.000089445523  1.800983036907
  0.411718750000  0.000088015564  0.000088015683  1.800979141754
  0.414062500000  0.000086578763  0.000086578879  1.800975246550
  0.416406250000  0.000085135284  0.000085135396  1.800971351297
  0.418750000000  0.000083685409  0.000083685518  1.800967455994
  0.421093750000  0.000082229417  0.000082229523  1.800963560640
  0.423437500000  0.000080767585  0.000080767688  1.800959665237
  0.425781250000  0.000079300187  0.000079300287  1.800955769784
  0.428125000000  0.000077827494  0.000077827591  1.800951874282
  0.430468750000  0.000076349773  0.000076349867  1.800947978729
  0.432812500000  0.000074867290  0.000074867382  1.800944083127
  0.435156250000  0.000073380308  0.000073380397  1.800940187476
  0.437500000000  0.000071889087  0.000071889173  1.800936291774
  0.439843750000  0.000070393883  0.000070393967  1.800932396024
  0.442187500000  0.000068894954  0.000068895034  1.800928500223
  0.444531250000  0.000067392549  0.000067392627  1.800924604374
  0.446875000000  0.000065886921  0.000065886997  1.800920708475
  0.449218750000  0.000064378317  0.000064378390  1.800916812526
  0.451562500000  0.000062866981  0.000062867052  1.800912916528
  0.453906250000  0.000061353158  0.000061353226  1.800909020481
  0.456250000000  0.000059837087  0.000059837153  1.800905124385
  0.458593750000  0.000058319009  0.000058319072  1.800901228240
  0.460937500000  0.000056799158  0.000056799219  1.800897332045
  0.463281250000  0.000055277770  0.000055277829  1.800893435802
  0.465625000000  0.000053755076  0.000053755133  1.800889539509
  0.467968750000  0.000052231307  0.000052231362  1.800885643168
  0.470312500000  0.000050706692  0.000050706744  1.800881746777
  0.472656250000  0.000049181455  0.000049181505  1.800877850338
  0.475000000000  0.000047655822  0.000047655870  1.800873953850
  0.477343750000  0.000046130014  0.000046130060  1.800870057313
  0.479687500000  0.000044604253  0.000044604297  1.800866160727
  0.482031250000  0.000043078756  0.000043078798  1.800862264093
  0.484375000000  0.000041553740  0.000041553781  1.800858367410
  0.486718750000  0.000040029421  0.000040029459  1.800854470679
  0.489062500000  0.000038506011  0.000038506047  1.800850573899
  0.491406250000  0.000036983722  0.000036983757  1.800846677070
  0.493750000000  0.000035462763  0.000035462796  1.800842780193
  0.496093750000  0.000033943343  0.000033943374  1.800838883268
  0.498437500000  0.000032425668  0.000032425698  1.800834986294
  0.500781250000  0.000030909942  0.000030909970  1.800831089272
  0.503125000000  0.000029396370  0.000029396396  1.800827192201
  0.505468750000  0.000027885151  0.000027885176  1.800823295083
  0.507812500000  0.000026376488  0.000026376511  1.800819397916
  0.510156250000  0.000024870577  0.000024870598  1.800815500701
  0.512500000000  0.000023367616  0.000023367636  1.800811603439
  0.514843750000  0.000021867800  0.000021867819  1.800807706128
  0.517187500000  0.000020371324  0.000020371341  1.800803808769
  0.519531250000  0.000018878379  0.000018878395  1.800799911362
  0.521875000000  0.000017389159  0.000017389173  1.800796013907
  0.524218750000  0.000015903851  0.000015903864  1.800792116405
  0.526562500000  0.000014422644  0.000014422656  1.800788218854
  0.528906250000  0.000012945726  0.000012945737  1.800784321256
  0.531250000000  0.000011473283  0.000011473292  1.800780423611
  0.533593750000  0.000010005498  0.000010005506  1.800776525917
  0.535937500000  0.000008542555  0.000008542562  1.800772628176
  0.538281250000  0.000007084636  0.000007084642  1.800768730388
  0.540625000000  0.000005631921  0.000005631926  1.800764832552
  0.542968750000  0.000004184591  0.000004184594  1.800760934668
  0.545312500000  0.000002742822  0.000002742824  1.800757036737
  0.547656250000  0.000001306791  0.000001306792  1.800753138759
  0.550000000000 -0.000000123324 -0.000000123324  1.800749240734
  0.552343750000 -0.000001547350 -0.000001547352  1.800745342661
  0.554687500000 -0.000002965114 -0.000002965116  1.800741444541
  0.557031250000 -0.000004376442 -0.000004376446  1.800737546374
  0.559375000000 -0.000005781165 -0.000005781169  1.800733648159
  0.561718750000 -0.000007179111 -0.000007179116  1.800729749898
  0.564062500000 -0.000008570111 -0.000008570117  1.800725851589
  0.566406250000 -0.000009953999 -0.000009954006  1.800721953234
  0.568750000000 -0.000011330606 -0.000011330614  1.800718054832
  0.571093750000 -0.000012699768 -0.000012699776  1.800714156382
  0.573437500000 -0.000014061318 -0.000014061328  1.800710257886
  0.575781250000 -0.000015415095 -0.000015415105  1.800706359343
  0.578125000000 -0.000016760934 -0.000016760945  1.800702460754
  0.580468750000 -0.000018098674 -0.000018098686  1.800698562118
  0.582812500000 -0.000019428154 -0.000019428167  1.800694663435
  0.585156250000 -0.000020749215 -0.000020749229  1.800690764705
  0.587500000000 -0.000022061697 -0.000022061712  1.800686865929
  0.589843750000 -0.000023365443 -0.000023365458  1.800682967106
  0.592187500000 -0.000024660295 -0.000024660312  1.800679068237
  0.594531250000 -0.000025946098 -0.000025946115  1.800675169322
  0.596875000000 -0.000027222697 -0.000027222714  1.800671270360
  0.599218750000 -0.000028489936 -0.000028489954  1.800667371352
  0.601562500000 -0.000029747663 -0.000029747682  1.800663472297
  0.603906250000 -0.000030995726 -0.000030995745  1.800659573196
  0.606250000000 -0.000032233972 -0.000032233992  1.800655674050
  0.608593750000 -0.000033462250 -0.000033462271  1.800651774857
  0.610937500000 -0.000034680411 -0.000034680433  1.800647875618
  0.613281250000 -0.000035888306 -0.000035888328  1.800643976332
  0.615625000000 -0.000037085786 -0.000037085809  1.800640077001
  0.617968750000 -0.000038272704 -0.000038272727  1.800636177624
  0.620312500000 -0.000039448913 -0.000039448937  1.800632278201
  0.622656250000 -0.000040614267 -0.000040614291  1.800628378733
  0.625000000000 -0.000041768621 -0.000041768646  1.800624479218
  0.627343750000 -0.000042911831 -0.000042911856  1.800620579658
  0.629687500000 -0.000044043753 -0.000044043778  1.800616680052
  0.632031250000 -0.000045164243 -0.000045164269  1.800612780400
  0.634375000000 -0.000046273161 -0.000046273188  1.800608880703
  0.636718750000 -0.000047370365 -0.000047370392  1.800604980960
  0.639062500000 -0.000048455714 -0.000048455741  1.800601081171
  0.641406250000 -0.000049529068 -0.000049529095  1.800597181338
  0.643750000000 -0.000050590288 -0.000050590316  1.800593281458
  0.646093750000 -0.000051639235 -0.000051639264  1.800589381534
  0.648437500000 -0.000052675772 -0.000052675801  1.800585481564
  0.650781250000 -0.000053699762 -0.000053699791  1.800581581549
  0.653125000000 -0.000054711068 -0.000054711097  1.800577681488
  0.655468750000 -0.000055709554 -0.000055709583  1.800573781382
  0.657812500000 -0.000056695085 -0.000056695115  1.800569881232
  0.660156250000 -0.000057667527 -0.000057667558  1.800565981036
  0.662500000000 -0.000058626746 -0.000058626777  1.800562080795
  0.664843750000 -0.000059572609 -0.000059572640  1.800558180509
  0.667187500000 -0.000060504984 -0.000060505015  1.800554280178
  0.669531250000 -0.000061423738 -0.000061423769  1.800550379802
  0.671875000000 -0.000062328740 -0.000062328771  1.800546479382
  0.674218750000 -0.000063219860 -0.000063219891  1.800542578916
  0.676562500000 -0.000064096967 -0.000064096999  1.800538678406
  0.678906250000 -0.000064959932 -0.000064959964  1.800534777851
  0.681250000000 -0.000065808627 -0.000065808659  1.800530877252
  0.683593750000 -0.000066642922 -0.000066642955  1.800526976608
  0.685937500000 -0.000067462692 -0.000067462724  1.800523075919
  0.688281250000 -0.000068267807 -0.000068267840  1.800519175186
  0.690625000000 -0.000069058142 -0.000069058175  1.800515274408
  0.692968750000 -0.000069833571 -0.000069833604  1.800511373586
  0.695312500000 -0.000070593969 -0.000070594002  1.800507472720
  0.697656250000 -0.000071339210 -0.000071339243  1.800503571809
  0.700000000000 -0.000072069170 -0.000072069204  1.800499670854
  0.702343750000 -0.000072783727 -0.000072783760  1.800495769854
  0.704687500000 -0.000073482755 -0.000073482789  1.800491868811
  0.707031250000 -0.000074166134 -0.000074166168  1.800487967723
  0.709375000000 -0.000074833740 -0.000074833774  1.800484066591
  0.711718750000 -0.000075485452 -0.000075485486  1.800480165415
  0.714062500000 -0.000076121149 -0.000076121183  1.800476264196
  0.716406250000 -0.000076740710 -0.000076740744  1.800472362932
  0.718750000000 -0.000077344016 -0.000077344050  1.800468461624
  0.721093750000 -0.000077930946 -0.000077930980  1.800464560273
  0.723437500000 -0.000078501382 -0.000078501416  1.800460658877
  0.725781250000 -0.000079055205 -0.000079055239  1.800456757438
  0.728125000000 -0.000079592297 -0.000079592331  1.800452855956
  0.730468750000 -0.000080112540 -0.000080112574  1.800448954429
  0.732812500000 -0.000080615817 -0.000080615851  1.800445052859
  0.735156250000 -0.000081102012 -0.000081102046  1.800441151245
  0.737500000000 -0.000081571008 -0.000081571042  1.800437249588
  0.739843750000 -0.000082022690 -0.000082022724  1.800433347888
  0.742187500000 -0.000082456941 -0.000082456976  1.800429446144
  0.744531250000 -0.000082873649 -0.000082873683  1.800425544356
  0.746875000000 -0.000083272697 -0.000083272732  1.800421642525
  0.749218750000 -0.000083653973 -0.000083654007  1.800417740651
  0.751562500000 -0.000084017362 -0.000084017397  1.800413838734
  0.753906250000 -0.000084362753 -0.000084362787  1.800409936773
  0.756250000000 -0.000084690031 -0.000084690065  1.800406034770
  0.758593750000 -0.000084999085 -0.000084999119  1.800402132723
  0.760937500000 -0.000085289803 -0.000085289837  1.800398230633
  0.763281250000 -0.000085562074 -0.000085562108  1.800394328501
  0.765625000000 -0.000085815787 -0.000085815821  1.800390426325
  0.767968750000 -0.000086050832 -0.000086050865  1.800386524106
  0.770312500000 -0.000086267098 -0.000086267131  1.800382621845
  0.772656250000 -0.000086464476 -0.000086464509  1.800378719540
  0.775000000000 -0.000086642856 -0.000086642889  1.800374817193
  0.777343750000 -0.000086802130 -0.000086802163  1.800370914804
  0.779687500000 -0.000086942189 -0.000086942221  1.800367012371
  0.782031250000 -0.000087062925 -0.000087062957  1.800363109896
  0.784375000000 -0.000087164231 -0.000087164263  1.800359207378
  0.786718750000 -0.000087245998 -0.000087246031  1.800355304818
  0.789062500000 -0.000087308121 -0.000087308154  1.800351402216
  0.791406250000 -0.000087350493 -0.000087350525  1.800347499570
  0.793750000000 -0.000087373008 -0.000087373039  1.800343596883
  0.796093750000 -0.000087375559 -0.000087375591  1.800339694153
  0.798437500000 -0.000087358042 -0.000087358073  1.800335791381
  0.800781250000 -0.000087320351 -0.000087320382  1.800331888567
  0.803125000000 -0.000087262382 -0.000087262413  1.800327985710
  0.805468750000 -0.000087184031 -0.000087184061  1.800324082812
  0.807812500000 -0.000087085193 -0.000087085223  1.800320179871
  0.810156250000 -0.000086965765 -0.000086965795  1.800316276888
  0.812500000000 -0.000086825644 -0.000086825674  1.800312373863
  0.814843750000 -0.000086664726 -0.000086664756  1.800308470796
