radius      S_expected         S_actual            Error 
  0.100000000000  0.000000000000  0.000000000000  1.351521112932
  0.128125000000  0.013373641554  0.013375403277  1.428197107912
  0.156250000000  0.021936163019  0.021934330013  1.431925245057
  0.184375000000  0.027253205159  0.027252066257  1.429037107447
  0.212500000000  0.030224861152  0.030224159151  1.425851448602
  0.240625000000  0.031430796764  0.031430358582  1.422657414452
  0.268750000000  0.031276555097  0.031276277521  1.419436778426
  0.296875000000  0.030064224431  0.030064046492  1.415506890766
  0.325000000000  0.028029899495  0.028029784601  1.403793192850
  0.353125000000  0.025364968320  0.025364894026  1.393009839321
  0.381250000000  0.022228895599  0.022228847831  1.408586868229
  0.409375000000  0.018757283526  0.018757253279  1.521407006085
  0.437500000000  0.015067210192  0.015067191600  1.563203919422
  0.465625000000  0.011260959379  0.011260948563  1.562349690891
  0.493750000000  0.007428780368  0.007428774730  1.558902467890
  0.521875000000  0.003651044288  0.003651042069  1.554539460461
  0.550000000000  0.000000000000  0.000000000000  1.541307639891
  0.578125000000 -0.003458767755 -0.003458766359  1.528089740520
  0.606250000000 -0.006665134880 -0.006665132656  1.523768380473
  0.634375000000 -0.009563477564 -0.009563474900  1.520387483283
  0.662500000000 -0.012101954693 -0.012101951857  1.519545627141
  0.690625000000 -0.014232029744 -0.014232026917  1.559832110190
  0.718750000000 -0.015908216998 -0.015908214301  1.667913685855
  0.746875000000 -0.017088021121 -0.017088018633  1.681872781876
  0.775000000000 -0.017732023748 -0.017732021518  1.668145400894
  0.803125000000 -0.017804059051 -0.017804057106  1.653556545045
  0.831250000000 -0.017271414876 -0.017271413230  1.648870950532
  0.859375000000 -0.016104997873 -0.016104996527  1.645114511525
  0.887500000000 -0.014279410155 -0.014279409104  1.641421516137
  0.915625000000 -0.011772900192 -0.011772899426  1.637763510444
  0.943750000000 -0.008567169896 -0.008567169401  1.634388638106
  0.971875000000 -0.004647040576 -0.004647040978  1.636697025050
  1.000000000000 -0.000000000000 -0.000000000000  1.700000000000
