radius      S_expected         S_actual            Error 
  0.100000000000  0.000000000000  0.000000000000  1.952296556855
  0.100878906250  0.000515561077  0.000515561077  1.952013013342
  0.101757812500  0.001023750649  0.001023750648  1.951729502758
  0.102636718750  0.001524696884  0.001524696883  1.951446055954
  0.103515625000  0.002018524477  0.002018524476  1.951162703736
  0.104394531250  0.002505354776  0.002505354775  1.950879476838
  0.105273437500  0.002985305902  0.002985305901  1.950596405903
  0.106152343750  0.003458492864  0.003458492863  1.950313521457
  0.107031250000  0.003925027672  0.003925027671  1.950030853888
  0.107910156250  0.004385019438  0.004385019436  1.949748433420
  0.108789062500  0.004838574479  0.004838574477  1.949466290094
  0.109667968750  0.005285796413  0.005285796412  1.949184453745
  0.110546875000  0.005726786255  0.005726786253  1.948902953978
  0.111425781250  0.006161642498  0.006161642496  1.948621820149
  0.112304687500  0.006590461203  0.006590461202  1.948341081344
  0.113183593750  0.007013336082  0.007013336080  1.948060766355
  0.114062500000  0.007430358569  0.007430358567  1.947780903664
  0.114941406250  0.007841617900  0.007841617898  1.947501521420
  0.115820312500  0.008247201186  0.008247201184  1.947222647423
  0.116699218750  0.008647193474  0.008647193472  1.946944309103
  0.117578125000  0.009041677824  0.009041677822  1.946666533500
  0.118457031250  0.009430735361  0.009430735359  1.946389347252
  0.119335937500  0.009814445346  0.009814445344  1.946112776573
  0.120214843750  0.010192885228  0.010192885225  1.945836847241
  0.121093750000  0.010566130701  0.010566130699  1.945561584577
  0.121972656250  0.010934255762  0.010934255760  1.945287013435
  0.122851562500  0.011297332760  0.011297332757  1.945013158186
  0.123730468750  0.011655432444  0.011655432442  1.944740042705
  0.124609375000  0.012008624017  0.012008624015  1.944467690354
  0.125488281250  0.012356975178  0.012356975176  1.944196123978
  0.126367187500  0.012700552166  0.012700552164  1.943925365885
  0.127246093750  0.013039419808  0.013039419806  1.943655437841
  0.128125000000  0.013373641554  0.013373641552  1.943386361060
  0.129003906250  0.013703279523  0.013703279521  1.943118156189
  0.129882812500  0.014028394537  0.014028394535  1.942850843307
  0.130761718750  0.014349046160  0.014349046158  1.942584441914
  0.131640625000  0.014665292735  0.014665292733  1.942318970922
  0.132519531250  0.014977191415  0.014977191413  1.942054448653
  0.133398437500  0.015284798201  0.015284798199  1.941790892829
  0.134277343750  0.015588167970  0.015588167968  1.941528320574
  0.135156250000  0.015887354508  0.015887354505  1.941266748401
  0.136035156250  0.016182410540  0.016182410538  1.941006192217
  0.136914062500  0.016473387760  0.016473387758  1.940746667315
  0.137792968750  0.016760336856  0.016760336854  1.940488188376
  0.138671875000  0.017043307539  0.017043307537  1.940230769464
  0.139550781250  0.017322348571  0.017322348569  1.939974424031
  0.140429687500  0.017597507787  0.017597507785  1.939719164909
  0.141308593750  0.017868832118  0.017868832116  1.939465004320
  0.142187500000  0.018136367622  0.018136367621  1.939211953872
  0.143066406250  0.018400159500  0.018400159498  1.938960024561
  0.143945312500  0.018660252120  0.018660252118  1.938709226777
  0.144824218750  0.018916689040  0.018916689038  1.938459570304
  0.145703125000  0.019169513025  0.019169513024  1.938211064326
  0.146582031250  0.019418766074  0.019418766072  1.937963717430
  0.147460937500  0.019664489430  0.019664489428  1.937717537612
  0.148339843750  0.019906723607  0.019906723606  1.937472532282
  0.149218750000  0.020145508406  0.020145508404  1.937228708270
  0.150097656250  0.020380882929  0.020380882927  1.936986071834
  0.150976562500  0.020612885600  0.020612885598  1.936744628662
  0.151855468750  0.020841554181  0.020841554179  1.936504383884
  0.152734375000  0.021066925788  0.021066925786  1.936265342079
  0.153613281250  0.021289036905  0.021289036903  1.936027507281
  0.154492187500  0.021507923401  0.021507923400  1.935790882990
  0.155371093750  0.021723620546  0.021723620544  1.935555472178
  0.156250000000  0.021936163019  0.021936163018  1.935321277298
  0.157128906250  0.022145584932  0.022145584930  1.935088300298
  0.158007812500  0.022351919832  0.022351919830  1.934856542625
  0.158886718750  0.022555200723  0.022555200722  1.934626005238
  0.159765625000  0.022755460076  0.022755460074  1.934396688615
  0.160644531250  0.022952729837  0.022952729836  1.934168592770
  0.161523437500  0.023147041447  0.023147041445  1.933941717254
  0.162402343750  0.023338425846  0.023338425844  1.933716061172
  0.163281250000  0.023526913489  0.023526913487  1.933491623195
  0.164160156250  0.023712534354  0.023712534353  1.933268401565
  0.165039062500  0.023895317957  0.023895317956  1.933046394110
  0.165917968750  0.024075293356  0.024075293355  1.932825598255
  0.166796875000  0.024252489166  0.024252489165  1.932606011032
  0.167675781250  0.024426933568  0.024426933567  1.932387629092
  0.168554687500  0.024598654317  0.024598654316  1.932170448715
  0.169433593750  0.024767678752  0.024767678750  1.931954465824
  0.170312500000  0.024934033804  0.024934033803  1.931739675993
  0.171191406250  0.025097746008  0.025097746007  1.931526074462
  0.172070312500  0.025258841509  0.025258841508  1.931313656142
  0.172949218750  0.025417346068  0.025417346067  1.931102415636
  0.173828125000  0.025573285076  0.025573285075  1.930892347239
  0.174707031250  0.025726683556  0.025726683555  1.930683444959
  0.175585937500  0.025877566176  0.025877566175  1.930475702523
  0.176464843750  0.026025957250  0.026025957249  1.930269113386
  0.177343750000  0.026171880753  0.026171880752  1.930063670747
  0.178222656250  0.026315360320  0.026315360319  1.929859367557
  0.179101562500  0.026456419260  0.026456419259  1.929656196531
  0.179980468750  0.026595080559  0.026595080558  1.929454150155
  0.180859375000  0.026731366885  0.026731366884  1.929253220702
  0.181738281250  0.026865300599  0.026865300598  1.929053400236
  0.182617187500  0.026996903758  0.026996903757  1.928854680629
  0.183496093750  0.027126198122  0.027126198121  1.928657053564
  0.184375000000  0.027253205159  0.027253205158  1.928460510551
  0.185253906250  0.027377946051  0.027377946050  1.928265042931
  0.186132812500  0.027500441703  0.027500441702  1.928070641890
  0.187011718750  0.027620712741  0.027620712740  1.927877298467
  0.187890625000  0.027738779527  0.027738779526  1.927685003561
  0.188769531250  0.027854662154  0.027854662153  1.927493747942
  0.189648437500  0.027968380461  0.027968380460  1.927303522259
  0.190527343750  0.028079954029  0.028079954028  1.927114317051
  0.191406250000  0.028189402194  0.028189402193  1.926926122750
  0.192285156250  0.028296744044  0.028296744043  1.926738929695
  0.193164062500  0.028401998429  0.028401998428  1.926552728136
  0.194042968750  0.028505183965  0.028505183964  1.926367508242
  0.194921875000  0.028606319035  0.028606319034  1.926183260113
  0.195800781250  0.028705421798  0.028705421797  1.925999973780
  0.196679687500  0.028802510189  0.028802510188  1.925817639218
  0.197558593750  0.028897601925  0.028897601924  1.925636246353
  0.198437500000  0.028990714509  0.028990714508  1.925455785063
  0.199316406250  0.029081865234  0.029081865233  1.925276245191
  0.200195312500  0.029171071188  0.029171071187  1.925097616549
  0.201074218750  0.029258349253  0.029258349252  1.924919888923
  0.201953125000  0.029343716115  0.029343716114  1.924743052081
  0.202832031250  0.029427188262  0.029427188262  1.924567095776
  0.203710937500  0.029508781994  0.029508781993  1.924392009754
  0.204589843750  0.029588513417  0.029588513416  1.924217783761
  0.205468750000  0.029666398456  0.029666398456  1.924044407543
  0.206347656250  0.029742452853  0.029742452852  1.923871870856
  0.207226562500  0.029816692170  0.029816692169  1.923700163466
  0.208105468750  0.029889131794  0.029889131793  1.923529275161
  0.208984375000  0.029959786940  0.029959786939  1.923359195747
  0.209863281250  0.030028672652  0.030028672651  1.923189915058
  0.210742187500  0.030095803809  0.030095803808  1.923021422959
  0.211621093750  0.030161195125  0.030161195124  1.922853709347
  0.212500000000  0.030224861152  0.030224861151  1.922686764160
  0.213378906250  0.030286816286  0.030286816285  1.922520577377
  0.214257812500  0.030347074764  0.030347074764  1.922355139020
  0.215136718750  0.030405650674  0.030405650674  1.922190439163
  0.216015625000  0.030462557951  0.030462557950  1.922026467930
  0.216894531250  0.030517810380  0.030517810380  1.921863215500
  0.217773437500  0.030571421605  0.030571421604  1.921700672109
  0.218652343750  0.030623405123  0.030623405122  1.921538828054
  0.219531250000  0.030673774292  0.030673774292  1.921377673696
  0.220410156250  0.030722542332  0.030722542331  1.921217199459
  0.221289062500  0.030769722324  0.030769722323  1.921057395837
  0.222167968750  0.030815327217  0.030815327217  1.920898253393
  0.223046875000  0.030859369829  0.030859369828  1.920739762761
  0.223925781250  0.030901862846  0.030901862845  1.920581914650
  0.224804687500  0.030942818826  0.030942818826  1.920424699844
  0.225683593750  0.030982250205  0.030982250204  1.920268109205
  0.226562500000  0.031020169290  0.031020169290  1.920112133674
  0.227441406250  0.031056588271  0.031056588271  1.919956764272
  0.228320312500  0.031091519215  0.031091519215  1.919801992101
  0.229199218750  0.031124974072  0.031124974072  1.919647808348
  0.230078125000  0.031156964677  0.031156964676  1.919494204282
  0.230957031250  0.031187502748  0.031187502747  1.919341171260
  0.231835937500  0.031216599893  0.031216599892  1.919188700722
  0.232714843750  0.031244267607  0.031244267607  1.919036784198
  0.233593750000  0.031270517278  0.031270517278  1.918885413304
  0.234472656250  0.031295360185  0.031295360185  1.918734579746
  0.235351562500  0.031318807502  0.031318807501  1.918584275319
  0.236230468750  0.031340870297  0.031340870296  1.918434491906
  0.237109375000  0.031361559536  0.031361559536  1.918285221484
  0.237988281250  0.031380886087  0.031380886086  1.918136456117
  0.238867187500  0.031398860712  0.031398860712  1.917988187963
  0.239746093750  0.031415494081  0.031415494081  1.917840409269
  0.240625000000  0.031430796764  0.031430796763  1.917693112375
  0.241503906250  0.031444779235  0.031444779234  1.917546289713
  0.242382812500  0.031457451876  0.031457451876  1.917399933805
  0.243261718750  0.031468824976  0.031468824976  1.917254037267
  0.244140625000  0.031478908732  0.031478908731  1.917108592805
  0.245019531250  0.031487713251  0.031487713251  1.916963593217
  0.245898437500  0.031495248553  0.031495248553  1.916819031395
  0.246777343750  0.031501524569  0.031501524568  1.916674900319
  0.247656250000  0.031506551144  0.031506551143  1.916531193062
  0.248535156250  0.031510338038  0.031510338038  1.916387902787
  0.249414062500  0.031512894929  0.031512894929  1.916245022750
  0.250292968750  0.031514231410  0.031514231410  1.916102546294
  0.251171875000  0.031514356995  0.031514356994  1.915960466853
  0.252050781250  0.031513281115  0.031513281115  1.915818777953
  0.252929687500  0.031511013125  0.031511013125  1.915677473206
  0.253808593750  0.031507562300  0.031507562299  1.915536546313
  0.254687500000  0.031502937837  0.031502937837  1.915395991064
  0.255566406250  0.031497148861  0.031497148861  1.915255801337
  0.256445312500  0.031490204418  0.031490204417  1.915115971095
  0.257324218750  0.031482113482  0.031482113481  1.914976494390
  0.258203125000  0.031472884954  0.031472884954  1.914837365357
  0.259082031250  0.031462527663  0.031462527663  1.914698578217
  0.259960937500  0.031451050368  0.031451050368  1.914560127278
  0.260839843750  0.031438461757  0.031438461756  1.914422006928
  0.261718750000  0.031424770448  0.031424770447  1.914284211640
  0.262597656250  0.031409984992  0.031409984992  1.914146735969
  0.263476562500  0.031394113875  0.031394113874  1.914009574552
  0.264355468750  0.031377165512  0.031377165512  1.913872722108
  0.265234375000  0.031359148256  0.031359148256  1.913736173433
  0.266113281250  0.031340070394  0.031340070394  1.913599923405
  0.266992187500  0.031319940151  0.031319940150  1.913463966980
  0.267871093750  0.031298765685  0.031298765685  1.913328299192
  0.268750000000  0.031276555097  0.031276555096  1.913192915151
  0.269628906250  0.031253316422  0.031253316422  1.913057810044
  0.270507812500  0.031229057637  0.031229057637  1.912922979135
  0.271386718750  0.031203786660  0.031203786660  1.912788417759
  0.272265625000  0.031177511347  0.031177511346  1.912654121328
  0.273144531250  0.031150239497  0.031150239497  1.912520085325
  0.274023437500  0.031121978853  0.031121978853  1.912386305307
  0.274902343750  0.031092737100  0.031092737099  1.912252776899
  0.275781250000  0.031062521865  0.031062521865  1.912119495800
  0.276660156250  0.031031340722  0.031031340721  1.911986457777
  0.277539062500  0.030999201189  0.030999201189  1.911853658665
  0.278417968750  0.030966110730  0.030966110730  1.911721094369
  0.279296875000  0.030932076757  0.030932076757  1.911588760858
  0.280175781250  0.030897106627  0.030897106627  1.911456654170
  0.281054687500  0.030861207646  0.030861207645  1.911324770408
  0.281933593750  0.030824387067  0.030824387067  1.911193105737
  0.282812500000  0.030786652095  0.030786652095  1.911061656389
  0.283691406250  0.030748009882  0.030748009882  1.910930418656
  0.284570312500  0.030708467531  0.030708467531  1.910799388894
  0.285449218750  0.030668032097  0.030668032097  1.910668563520
  0.286328125000  0.030626710584  0.030626710584  1.910537939009
  0.287207031250  0.030584509951  0.030584509950  1.910407511899
  0.288085937500  0.030541437106  0.030541437106  1.910277278785
  0.288964843750  0.030497498914  0.030497498914  1.910147236318
  0.289843750000  0.030452702192  0.030452702191  1.910017381209
  0.290722656250  0.030407053709  0.030407053709  1.909887710224
  0.291601562500  0.030360560192  0.030360560192  1.909758220185
  0.292480468750  0.030313228322  0.030313228322  1.909628907967
  0.293359375000  0.030265064735  0.030265064735  1.909499770500
  0.294238281250  0.030216076024  0.030216076024  1.909370804768
  0.295117187500  0.030166268739  0.030166268739  1.909242007805
  0.295996093750  0.030115649387  0.030115649386  1.909113376699
  0.296875000000  0.030064224431  0.030064224431  1.908984908587
  0.297753906250  0.030012000295  0.030012000295  1.908856600656
  0.298632812500  0.029958983361  0.029958983361  1.908728450143
  0.299511718750  0.029905179967  0.029905179967  1.908600454333
  0.300390625000  0.029850596415  0.029850596415  1.908472610559
  0.301269531250  0.029795238964  0.029795238963  1.908344916201
  0.302148437500  0.029739113834  0.029739113833  1.908217368685
  0.303027343750  0.029682227206  0.029682227206  1.908089965482
  0.303906250000  0.029624585223  0.029624585223  1.907962704110
  0.304785156250  0.029566193988  0.029566193988  1.907835582128
  0.305664062500  0.029507059568  0.029507059568  1.907708597141
  0.306542968750  0.029447187992  0.029447187992  1.907581746795
  0.307421875000  0.029386585249  0.029386585249  1.907455028780
  0.308300781250  0.029325257297  0.029325257296  1.907328440825
  0.309179687500  0.029263210051  0.029263210051  1.907201980702
  0.310058593750  0.029200449396  0.029200449395  1.907075646222
  0.310937500000  0.029136981177  0.029136981176  1.906949435236
  0.311816406250  0.029072811206  0.029072811206  1.906823345631
  0.312695312500  0.029007945260  0.029007945259  1.906697375337
  0.313574218750  0.028942389080  0.028942389080  1.906571522318
  0.314453125000  0.028876148376  0.028876148376  1.906445784576
  0.315332031250  0.028809228820  0.028809228820  1.906320160150
  0.316210937500  0.028741636054  0.028741636054  1.906194647112
  0.317089843750  0.028673375685  0.028673375685  1.906069243572
  0.317968750000  0.028604453288  0.028604453288  1.905943947675
  0.318847656250  0.028534874405  0.028534874405  1.905818757596
  0.319726562500  0.028464644547  0.028464644547  1.905693671548
  0.320605468750  0.028393769190  0.028393769190  1.905568687773
  0.321484375000  0.028322253783  0.028322253783  1.905443804548
  0.322363281250  0.028250103741  0.028250103741  1.905319020181
  0.323242187500  0.028177324448  0.028177324448  1.905194333010
  0.324121093750  0.028103921258  0.028103921258  1.905069741405
  0.325000000000  0.028029899495  0.028029899495  1.904945243765
  0.325878906250  0.027955264453  0.027955264453  1.904820838520
  0.326757812500  0.027880021395  0.027880021395  1.904696524129
  0.327636718750  0.027804175556  0.027804175556  1.904572299077
  0.328515625000  0.027727732142  0.027727732142  1.904448161880
  0.329394531250  0.027650696328  0.027650696328  1.904324111082
  0.330273437500  0.027573073262  0.027573073262  1.904200145250
  0.331152343750  0.027494868064  0.027494868064  1.904076262983
  0.332031250000  0.027416085825  0.027416085825  1.903952462903
  0.332910156250  0.027336731609  0.027336731609  1.903828743659
  0.333789062500  0.027256810451  0.027256810450  1.903705103923
  0.334667968750  0.027176327359  0.027176327359  1.903581542395
  0.335546875000  0.027095287316  0.027095287316  1.903458057797
  0.336425781250  0.027013695276  0.027013695276  1.903334648878
  0.337304687500  0.026931556167  0.026931556167  1.903211314406
  0.338183593750  0.026848874890  0.026848874890  1.903088053177
  0.339062500000  0.026765656322  0.026765656322  1.902964864006
  0.339941406250  0.026681905312  0.026681905312  1.902841745733
  0.340820312500  0.026597626683  0.026597626683  1.902718697217
  0.341699218750  0.026512825236  0.026512825236  1.902595717342
  0.342578125000  0.026427505742  0.026427505742  1.902472805011
  0.343457031250  0.026341672951  0.026341672951  1.902349959147
  0.344335937500  0.026255331586  0.026255331586  1.902227178697
  0.345214843750  0.026168486347  0.026168486347  1.902104462624
  0.346093750000  0.026081141908  0.026081141908  1.901981809912
  0.346972656250  0.025993302920  0.025993302919  1.901859219567
  0.347851562500  0.025904974009  0.025904974009  1.901736690609
  0.348730468750  0.025816159780  0.025816159780  1.901614222082
  0.349609375000  0.025726864811  0.025726864811  1.901491813043
  0.350488281250  0.025637093659  0.025637093658  1.901369462572
  0.351367187500  0.025546850856  0.025546850856  1.901247169763
  0.352246093750  0.025456140914  0.025456140914  1.901124933728
  0.353125000000  0.025364968320  0.025364968320  1.901002753599
  0.354003906250  0.025273337539  0.025273337539  1.900880628520
  0.354882812500  0.025181253013  0.025181253013  1.900758557655
  0.355761718750  0.025088719163  0.025088719163  1.900636540182
  0.356640625000  0.024995740387  0.024995740387  1.900514575297
  0.357519531250  0.024902321063  0.024902321063  1.900392662209
  0.358398437500  0.024808465545  0.024808465544  1.900270800143
  0.359277343750  0.024714178166  0.024714178166  1.900148988341
  0.360156250000  0.024619463240  0.024619463240  1.900027226058
  0.361035156250  0.024524325058  0.024524325058  1.899905512562
  0.361914062500  0.024428767890  0.024428767890  1.899783847137
  0.362792968750  0.024332795985  0.024332795985  1.899662229081
  0.363671875000  0.024236413572  0.024236413572  1.899540657706
  0.364550781250  0.024139624861  0.024139624861  1.899419132335
  0.365429687500  0.024042434039  0.024042434039  1.899297652306
  0.366308593750  0.023944845274  0.023944845274  1.899176216970
  0.367187500000  0.023846862714  0.023846862714  1.899054825689
  0.368066406250  0.023748490489  0.023748490489  1.898933477841
