radius      S_expected         S_actual            Error 
  0.100000000000  0.000000000000  0.000000000000  1.148787327067
  0.101234567901  0.000050173564  0.000050170609  1.144033310267
  0.102469135802  0.000099895608  0.000099889737  1.139304126621
  0.103703703704  0.000149115070  0.000149106332  1.134599802101
  0.104938271605  0.000197781998  0.000197770456  1.129920362476
  0.106172839506  0.000245847675  0.000245833403  1.125265833190
  0.107407407407  0.000293264731  0.000293247817  1.120636239245
  0.108641975309  0.000339987258  0.000339967798  1.116031605078
  0.109876543210  0.000385970910  0.000385949014  1.111451954444
  0.111111111111  0.000431173004  0.000431148790  1.106897310303
  0.112345679012  0.000475552611  0.000475526206  1.102367694708
  0.113580246914  0.000519070642  0.000519042182  1.097863128693
  0.114814814815  0.000561689922  0.000561659550  1.093383632166
  0.116049382716  0.000603375262  0.000603343130  1.088929223812
  0.117283950617  0.000644093523  0.000644059787  1.084499920987
  0.118518518519  0.000683813669  0.000683778491  1.080095739628
  0.119753086420  0.000722506811  0.000722470358  1.075716694160
  0.120987654321  0.000760146249  0.000760108692  1.071362797411
  0.122222222222  0.000796707502  0.000796669013  1.067034060529
  0.123456790123  0.000832168328  0.000832129082  1.062730492910
  0.124691358025  0.000866508738  0.000866468912  1.058452102121
  0.125925925926  0.000899711009  0.000899670779  1.054198893837
  0.127160493827  0.000931759673  0.000931719215  1.049970871779
  0.128395061728  0.000962641516  0.000962601005  1.045768037661
  0.129629629630  0.000992345559  0.000992305168  1.041590391136
  0.130864197531  0.001020863037  0.001020822935  1.037437929756
  0.132098765432  0.001048187365  0.001048147721  1.033310648927
  0.133333333333  0.001074314109  0.001074275083  1.029208541881
  0.134567901235  0.001099240936  0.001099202688  1.025131599646
  0.135802469136  0.001122967574  0.001122930256  1.021079811020
  0.137037037037  0.001145495752  0.001145459512  1.017053162559
  0.138271604938  0.001166829149  0.001166794126  1.013051638560
  0.139506172840  0.001186973324  0.001186939655  1.009075221056
  0.140740740741  0.001205935657  0.001205903468  1.005123889812
  0.141975308642  0.001223725274  0.001223694686  1.001197622330
  0.143209876543  0.001240352975  0.001240324100  0.997296393855
  0.144444444444  0.001255831157  0.001255804100  0.993420177384
  0.145679012346  0.001270173739  0.001270148597  0.989568943688
  0.146913580247  0.001283396076  0.001283372938  0.985742661325
  0.148148148148  0.001295514882  0.001295493828  0.981941296671
  0.149382716049  0.001306548142  0.001306529245  0.978164813941
  0.150617283951  0.001316515033  0.001316498356  0.974413175226
  0.151851851852  0.001325435834  0.001325421435  0.970686340524
  0.153086419753  0.001333331848  0.001333319773  0.966984267779
  0.154320987654  0.001340225311  0.001340215601  0.963306912920
  0.155555555556  0.001346139314  0.001346131999  0.959654229908
  0.156790123457  0.001351097715  0.001351092821  0.956026170776
  0.158024691358  0.001355125063  0.001355122606  0.952422685681
  0.159259259259  0.001358246514  0.001358246502  0.948843722950
  0.160493827160  0.001360487752  0.001360490188  0.945289229137
  0.161728395062  0.001361874915  0.001361879795  0.941759149070
  0.162962962963  0.001362434521  0.001362441833  0.938253425907
  0.164197530864  0.001362193391  0.001362203117  0.934772001194
  0.165432098765  0.001361178585  0.001361190703  0.931314814919
  0.166666666667  0.001359417331  0.001359431810  0.927881805567
  0.167901234568  0.001356936961  0.001356953768  0.924472910183
  0.169135802469  0.001353764850  0.001353783944  0.921088064426
  0.170370370370  0.001349928356  0.001349949694  0.917727202628
  0.171604938272  0.001345454764  0.001345478299  0.914390257853
  0.172839506173  0.001340371236  0.001340396914  0.911077161954
  0.174074074074  0.001334704755  0.001334732520  0.907787845633
  0.175308641975  0.001328482081  0.001328511874  0.904522238496
  0.176543209877  0.001321729708  0.001321761468  0.901280269112
  0.177777777778  0.001314473822  0.001314507482  0.898061865069
  0.179012345679  0.001306740259  0.001306775753  0.894866953030
  0.180246913580  0.001298554475  0.001298591734  0.891695458787
  0.181481481481  0.001289941510  0.001289980463  0.888547307315
  0.182716049383  0.001280925960  0.001280966535  0.885422422829
  0.183950617284  0.001271531948  0.001271574072  0.882320728828
  0.185185185185  0.001261783103  0.001261826700  0.879242148154
  0.186419753086  0.001251702533  0.001251747529  0.876186603038
  0.187654320988  0.001241312812  0.001241359131  0.873154015147
  0.188888888889  0.001230635957  0.001230683523  0.870144305635
  0.190123456790  0.001219693418  0.001219742156  0.867157395184
  0.191358024691  0.001208506062  0.001208555898  0.864193204054
  0.192592592593  0.001197094168  0.001197145026  0.861251652121
  0.193827160494  0.001185477413  0.001185529219  0.858332658920
  0.195061728395  0.001173674869  0.001173727549  0.855436143687
  0.196296296296  0.001161704996  0.001161758479  0.852562025398
  0.197530864198  0.001149585644  0.001149639857  0.849710222803
  0.198765432099  0.001137334045  0.001137388920  0.846880654463
  0.200000000000  0.001124966822  0.001125022288  0.844073238786
  0.201234567901  0.001112499981  0.001112555973  0.841287894061
  0.202469135802  0.001099948923  0.001100005373  0.838524538484
  0.203703703704  0.001087328442  0.001087385287  0.835783090196
  0.204938271605  0.001074652733  0.001074709911  0.833063467303
  0.206172839506  0.001061935401  0.001061992850  0.830365587910
  0.207407407407  0.001049189462  0.001049247124  0.827689370147
  0.208641975309  0.001036427358  0.001036485176  0.825034732188
  0.209876543210  0.001023660963  0.001023718882  0.822401592280
  0.211111111111  0.001010901592  0.001010959559  0.819789868763
  0.212345679012  0.000998160014  0.000998217978  0.817199480089
  0.213580246914  0.000985446461  0.000985504373  0.814630344847
  0.214814814815  0.000972770642  0.000972828454  0.812082381774
  0.216049382716  0.000960141751  0.000960199418  0.809555509781
  0.217283950617  0.000947568482  0.000947625961  0.807049647959
  0.218518518519  0.000935059042  0.000935116292  0.804564715606
  0.219753086420  0.000922621165  0.000922678146  0.802100632229
  0.220987654321  0.000910262119  0.000910318795  0.799657317566
  0.222222222222  0.000897988729  0.000898045063  0.797234691595
  0.223456790123  0.000885807380  0.000885863340  0.794832674543
  0.224691358025  0.000873724040  0.000873779593  0.792451186901
  0.225925925926  0.000861744265  0.000861799382  0.790090149428
  0.227160493827  0.000849873220  0.000849927872  0.787749483164
  0.228395061728  0.000838115687  0.000838169848  0.785429109435
  0.229629629630  0.000826476081  0.000826529727  0.783128949862
  0.230864197531  0.000814958462  0.000815011570  0.780848926365
  0.232098765432  0.000803566551  0.000803619099  0.778588961169
  0.233333333333  0.000792303738  0.000792355707  0.776348976812
  0.234567901235  0.000781173099  0.000781224471  0.774128896145
  0.235802469136  0.000770177408  0.000770228166  0.771928642337
  0.237037037037  0.000759319148  0.000759369277  0.769748138880
  0.238271604938  0.000748600525  0.000748650010  0.767587309587
  0.239506172840  0.000738023476  0.000738072306  0.765446078600
  0.240740740741  0.000727589689  0.000727637851  0.763324370386
  0.241975308642  0.000717300603  0.000717348089  0.761222109741
  0.243209876543  0.000707157431  0.000707204231  0.759139221791
  0.244444444444  0.000697161163  0.000697207269  0.757075631988
  0.245679012346  0.000687312578  0.000687357984  0.755031266116
  0.246913580247  0.000677612257  0.000677656958  0.753006050286
  0.248148148148  0.000668060592  0.000668104582  0.750999910934
  0.249382716049  0.000658657793  0.000658701070  0.749012774826
  0.250617283951  0.000649403903  0.000649446464  0.747044569048
  0.251851851852  0.000640298802  0.000640340645  0.745095221013
  0.253086419753  0.000631342218  0.000631383342  0.743164658450
  0.254320987654  0.000622533737  0.000622574142  0.741252809408
  0.255555555556  0.000613872808  0.000613912496  0.739359602252
  0.256790123457  0.000605358756  0.000605397727  0.737484965660
  0.258024691358  0.000596990784  0.000597029040  0.735628828616
  0.259259259259  0.000588767986  0.000588805529  0.733791120416
  0.260493827160  0.000580689349  0.000580726183  0.731971770654
  0.261728395062  0.000572753763  0.000572789893  0.730170709227
  0.262962962963  0.000564960030  0.000564995458  0.728387866327
  0.264197530864  0.000557306864  0.000557341596  0.726623172438
  0.265432098765  0.000549792903  0.000549826945  0.724876558334
  0.266666666667  0.000542416713  0.000542450069  0.723147955072
  0.267901234568  0.000535176791  0.000535209468  0.721437293989
  0.269135802469  0.000528071576  0.000528103580  0.719744506702
  0.270370370370  0.000521099449  0.000521130787  0.718069525096
  0.271604938272  0.000514258739  0.000514289418  0.716412281328
  0.272839506173  0.000507547732  0.000507577759  0.714772707816
  0.274074074074  0.000500964669  0.000500994053  0.713150737239
  0.275308641975  0.000494507755  0.000494536503  0.711546302531
  0.276543209877  0.000488175163  0.000488203282  0.709959336877
  0.277777777778  0.000481965033  0.000481992533  0.708389773708
  0.279012345679  0.000475875483  0.000475902371  0.706837546698
  0.280246913580  0.000469904606  0.000469930892  0.705302589758
  0.281481481481  0.000464050478  0.000464076170  0.703784837033
  0.282716049383  0.000458311158  0.000458336265  0.702284222896
  0.283950617284  0.000452684694  0.000452709224  0.700800681946
  0.285185185185  0.000447169122  0.000447193085  0.699334149001
  0.286419753086  0.000441762473  0.000441785878  0.697884559095
  0.287654320988  0.000436462772  0.000436485627  0.696451847474
  0.288888888889  0.000431268042  0.000431290358  0.695035949592
  0.290123456790  0.000426176307  0.000426198092  0.693636801104
  0.291358024691  0.000421185593  0.000421206857  0.692254337866
  0.292592592593  0.000416293929  0.000416314680  0.690888495928
  0.293827160494  0.000411499351  0.000411519599  0.689539211529
  0.295061728395  0.000406799903  0.000406819658  0.688206421096
  0.296296296296  0.000402193639  0.000402212909  0.686890061238
  0.297530864198  0.000397678622  0.000397697416  0.685590068741
  0.298765432099  0.000393252930  0.000393271258  0.684306380567
  0.300000000000  0.000388914652  0.000388932523  0.683038933847
  0.301234567901  0.000384661896  0.000384679318  0.681787665880
  0.302469135802  0.000380492781  0.000380509764  0.680552514126
  0.303703703704  0.000376405449  0.000376422001  0.679333416205
  0.304938271605  0.000372398055  0.000372414185  0.678130309892
  0.306172839506  0.000368468776  0.000368484493  0.676943133113
  0.307407407407  0.000364615808  0.000364631121  0.675771823942
  0.308641975309  0.000360837369  0.000360852286  0.674616320597
  0.309876543210  0.000357131698  0.000357146227  0.673476561438
  0.311111111111  0.000353497053  0.000353511203  0.672352484962
  0.312345679012  0.000349931719  0.000349945498  0.671244029800
  0.313580246914  0.000346434001  0.000346447418  0.670151134713
  0.314814814815  0.000343002230  0.000343015291  0.669073738589
  0.316049382716  0.000339634757  0.000339647472  0.668011780443
  0.317283950617  0.000336329962  0.000336342338  0.666965199408
  0.318518518519  0.000333086247  0.000333098291  0.665933934737
  0.319753086420  0.000329902038  0.000329913758  0.664917925796
  0.320987654321  0.000326775787  0.000326787191  0.663917112065
  0.322222222222  0.000323705972  0.000323717067  0.662931433133
  0.323456790123  0.000320691096  0.000320701888  0.661960828693
  0.324691358025  0.000317729685  0.000317740183  0.661005238542
  0.325925925926  0.000314820294  0.000314830504  0.660064602581
  0.327160493827  0.000311961502  0.000311971431  0.659138860804
  0.328395061728  0.000309151912  0.000309161567  0.658227953303
  0.329629629630  0.000306390154  0.000306399542  0.657331820263
  0.330864197531  0.000303674884  0.000303684011  0.656450401958
  0.332098765432  0.000301004783  0.000301013655  0.655583638749
  0.333333333333  0.000298378556  0.000298387179  0.654731471085
  0.334567901235  0.000295794934  0.000295803314  0.653893839495
  0.335802469136  0.000293252672  0.000293260817  0.653070684589
  0.337037037037  0.000290750553  0.000290758467  0.652261947058
  0.338271604938  0.000288287381  0.000288295070  0.651467567665
  0.339506172840  0.000285861986  0.000285869456  0.650687487251
  0.340740740741  0.000283473222  0.000283480479  0.649921646724
  0.341975308642  0.000281119968  0.000281127017  0.649169987066
  0.343209876543  0.000278801125  0.000278807971  0.648432449324
  0.344444444444  0.000276515619  0.000276522268  0.647708974612
  0.345679012346  0.000274262399  0.000274268856  0.646999504107
  0.346913580247  0.000272040438  0.000272046707  0.646303979048
  0.348148148148  0.000269848729  0.000269854816  0.645622340734
  0.349382716049  0.000267686290  0.000267692199  0.644954530523
  0.350617283951  0.000265552161  0.000265557898  0.644300489827
  0.351851851852  0.000263445404  0.000263450971  0.643660160116
  0.353086419753  0.000261365101  0.000261370504  0.643033482910
  0.354320987654  0.000259310357  0.000259315601  0.642420399783
  0.355555555556  0.000257280297  0.000257285386  0.641820852356
  0.356790123457  0.000255274069  0.000255279006  0.641234782301
  0.358024691358  0.000253290838  0.000253295628  0.640662131335
  0.359259259259  0.000251329791  0.000251334439  0.640102841221
  0.360493827160  0.000249390136  0.000249394645  0.639556853765
  0.361728395062  0.000247471099  0.000247475472  0.639024110816
  0.362962962963  0.000245571925  0.000245576165  0.638504554265
  0.364197530864  0.000243691877  0.000243695990  0.637998126040
  0.365432098765  0.000241830240  0.000241834228  0.637504768111
  0.366666666667  0.000239986314  0.000239990181  0.637024422482
  0.367901234568  0.000238159417  0.000238163166  0.636557031196
  0.369135802469  0.000236348887  0.000236352522  0.636102536327
  0.370370370370  0.000234554077  0.000234557601  0.635660879985
  0.371604938272  0.000232774359  0.000232777774  0.635232004313
  0.372839506173  0.000231009118  0.000231012428  0.634815851484
  0.374074074074  0.000229257760  0.000229260967  0.634412363702
  0.375308641975  0.000227519703  0.000227522811  0.634021483200
  0.376543209877  0.000225794384  0.000225797396  0.633643152238
  0.377777777778  0.000224081253  0.000224084171  0.633277313106
  0.379012345679  0.000222379776  0.000222382603  0.632923908119
  0.380246913580  0.000220689435  0.000220692173  0.632582879616
  0.381481481481  0.000219009724  0.000219012376  0.632254169962
  0.382716049383  0.000217340153  0.000217342722  0.631937721546
  0.383950617284  0.000215680245  0.000215682733  0.631633476779
  0.385185185185  0.000214029539  0.000214031948  0.631341378094
  0.386419753086  0.000212387584  0.000212389917  0.631061367945
  0.387654320988  0.000210753944  0.000210756203  0.630793388808
  0.388888888889  0.000209128196  0.000209130382  0.630537383176
  0.390123456790  0.000207509928  0.000207512045  0.630293293562
  0.391358024691  0.000205898742  0.000205900791  0.630061062499
  0.392592592593  0.000204294252  0.000204296234  0.629840632536
  0.393827160494  0.000202696081  0.000202698000  0.629631946237
  0.395061728395  0.000201103868  0.000201105725  0.629434946187
  0.396296296296  0.000199517259  0.000199519056  0.629249574982
  0.397530864198  0.000197935914  0.000197937653  0.629075775236
  0.398765432099  0.000196359502  0.000196361184  0.628913489575
  0.400000000000  0.000194787704  0.000194789331  0.628762660642
  0.401234567901  0.000193220209  0.000193221782  0.628623231092
  0.402469135802  0.000191656717  0.000191658239  0.628495143591
  0.403703703704  0.000190096940  0.000190098412  0.628378340820
  0.404938271605  0.000188540597  0.000188542020  0.628272765471
  0.406172839506  0.000186987416  0.000186988792  0.628178360246
  0.407407407407  0.000185437137  0.000185438467  0.628095067861
  0.408641975309  0.000183889507  0.000183890792  0.628022831041
  0.409876543210  0.000182344280  0.000182345523  0.627961592519
  0.411111111111  0.000180801223  0.000180802424  0.627911295042
  0.412345679012  0.000179260107  0.000179261268  0.627871881362
  0.413580246914  0.000177720714  0.000177721836  0.627843294243
  0.414814814815  0.000176182832  0.000176183916  0.627825476456
  0.416049382716  0.000174646258  0.000174647305  0.627818370781
  0.417283950617  0.000173110795  0.000173111806  0.627821920007
  0.418518518519  0.000171576256  0.000171577233  0.627836066928
  0.419753086420  0.000170042458  0.000170043402  0.627860754346
  0.420987654321  0.000168509228  0.000168510139  0.627895925072
  0.422222222222  0.000166976398  0.000166977278  0.627941521923
  0.423456790123  0.000165443807  0.000165444656  0.627997487720
  0.424691358025  0.000163911300  0.000163912120  0.628063765293
  0.425925925926  0.000162378730  0.000162379521  0.628140297477
  0.427160493827  0.000160845954  0.000160846718  0.628227027113
  0.428395061728  0.000159312836  0.000159313574  0.628323897047
  0.429629629630  0.000157779248  0.000157779959  0.628430850130
  0.430864197531  0.000156245063  0.000156245750  0.628547829220
  0.432098765432  0.000154710164  0.000154710827  0.628674777177
  0.433333333333  0.000153174438  0.000153175076  0.628811636869
  0.434567901235  0.000151637775  0.000151638391  0.628958351164
  0.435802469136  0.000150100074  0.000150100668  0.629114862939
  0.437037037037  0.000148561236  0.000148561809  0.629281115073
  0.438271604938  0.000147021169  0.000147021722  0.629457050449
  0.439506172840  0.000145479784  0.000145480317  0.629642611954
  0.440740740741  0.000143936998  0.000143937512  0.629837742479
  0.441975308642  0.000142392732  0.000142393227  0.630042384919
  0.443209876543  0.000140846911  0.000140847388  0.630256482171
  0.444444444444  0.000139299465  0.000139299924  0.630479977136
  0.445679012346  0.000137750327  0.000137750770  0.630712812720
  0.446913580247  0.000136199436  0.000136199862  0.630954931830
  0.448148148148  0.000134646733  0.000134647144  0.631206277376
  0.449382716049  0.000133092164  0.000133092560  0.631466792274
  0.450617283951  0.000131535678  0.000131536059  0.631736419438
  0.451851851852  0.000129977229  0.000129977596  0.632015101788
  0.453086419753  0.000128416772  0.000128417125  0.632302782247
  0.454320987654  0.000126854269  0.000126854609  0.632599403739
  0.455555555556  0.000125289681  0.000125290009  0.632904909191
  0.456790123457  0.000123722977  0.000123723292  0.633219241533
  0.458024691358  0.000122154125  0.000122154428  0.633542343697
  0.459259259259  0.000120583099  0.000120583390  0.633874158617
  0.460493827160  0.000119009874  0.000119010154  0.634214629231
  0.461728395062  0.000117434429  0.000117434699  0.634563698477
  0.462962962963  0.000115856746  0.000115857005  0.634921309297
  0.464197530864  0.000114276809  0.000114277058  0.635287404634
  0.465432098765  0.000112694605  0.000112694844  0.635661927433
  0.466666666667  0.000111110123  0.000111110353  0.636044820641
  0.467901234568  0.000109523356  0.000109523577  0.636436027210
  0.469135802469  0.000107934298  0.000107934511  0.636835490090
  0.470370370370  0.000106342947  0.000106343151  0.637243152234
  0.471604938272  0.000104749301  0.000104749497  0.637658956599
  0.472839506173  0.000103153361  0.000103153550  0.638082846142
  0.474074074074  0.000101555133  0.000101555313  0.638514763821
  0.475308641975  0.000099954620  0.000099954794  0.638954652599
  0.476543209877  0.000098351832  0.000098351998  0.639402455437
