radius      S_expected         S_actual            Error 
  0.100000000000  0.000000000000  0.000000000000  1.351521738124
  0.100439453125  0.000258710126  0.000258710330  1.353617176556
  0.100878906250  0.000515561077  0.000515561479  1.355709157638
  0.101318359375  0.000770569207  0.000770569804  1.357795147501
  0.101757812500  0.001023750649  0.001023751434  1.359872640297
  0.102197265625  0.001275121310  0.001275122280  1.361939169880
  0.102636718750  0.001524696884  0.001524698034  1.363992321092
  0.103076171875  0.001772492849  0.001772494175  1.366029740549
  0.103515625000  0.002018524477  0.002018525973  1.368049146819
  0.103955078125  0.002262806831  0.002262808495  1.370048339910
  0.104394531250  0.002505354776  0.002505356602  1.372025209996
  0.104833984375  0.002746182976  0.002746184961  1.373977745291
  0.105273437500  0.002985305902  0.002985308041  1.375904039052
  0.105712890625  0.003222737834  0.003222740124  1.377802295635
  0.106152343750  0.003458492864  0.003458495302  1.379670835610
  0.106591796875  0.003692584902  0.003692587482  1.381508099902
  0.107031250000  0.003925027672  0.003925030393  1.383312652965
  0.107470703125  0.004155834726  0.004155837583  1.385083184998
  0.107910156250  0.004385019438  0.004385022428  1.386818513234
  0.108349609375  0.004612595010  0.004612598130  1.388517582324
  0.108789062500  0.004838574479  0.004838577724  1.390179463873
  0.109228515625  0.005062970711  0.005062974080  1.391803355162
  0.109667968750  0.005285796413  0.005285799902  1.393388577134
  0.110107421875  0.005507064132  0.005507067737  1.394934571685
  0.110546875000  0.005726786255  0.005726789974  1.396440898344
  0.110986328125  0.005944975016  0.005944978846  1.397907230394
  0.111425781250  0.006161642498  0.006161646436  1.399333350526
  0.111865234375  0.006376800632  0.006376804675  1.400719146072
  0.112304687500  0.006590461203  0.006590465350  1.402064603904
  0.112744140625  0.006802635854  0.006802640100  1.403369805059
  0.113183593750  0.007013336082  0.007013340425  1.404634919156
  0.113623046875  0.007222573246  0.007222577685  1.405860198666
  0.114062500000  0.007430358569  0.007430363099  1.407045973099
  0.114501953125  0.007636703136  0.007636707756  1.408192643146
  0.114941406250  0.007841617900  0.007841622608  1.409300674848
  0.115380859375  0.008045113686  0.008045118479  1.410370593814
  0.115820312500  0.008247201186  0.008247206062  1.411402979545
  0.116259765625  0.008447890968  0.008447895924  1.412398459883
  0.116699218750  0.008647193474  0.008647198509  1.413357705632
  0.117138671875  0.008845119027  0.008845124138  1.414281425359
  0.117578125000  0.009041677824  0.009041683009  1.415170360414
  0.118017578125  0.009236879947  0.009236885205  1.416025280167
  0.118457031250  0.009430735361  0.009430740689  1.416846977491
  0.118896484375  0.009623253916  0.009623259312  1.417636264490
  0.119335937500  0.009814445346  0.009814450809  1.418393968485
  0.119775390625  0.010004319278  0.010004324806  1.419120928257
  0.120214843750  0.010192885228  0.010192890818  1.419817990547
  0.120654296875  0.010380152601  0.010380158252  1.420486006813
  0.121093750000  0.010566130701  0.010566136411  1.421125830241
  0.121533203125  0.010750828723  0.010750834491  1.421738313006
  0.121972656250  0.010934255762  0.010934261586  1.422324303766
  0.122412109375  0.011116420810  0.011116426688  1.422884645395
  0.122851562500  0.011297332760  0.011297338690  1.423420172933
  0.123291015625  0.011477000405  0.011477006387  1.423931711756
  0.123730468750  0.011655432444  0.011655438475  1.424420075940
  0.124169921875  0.011832637479  0.011832643558  1.424886066823
  0.124609375000  0.012008624017  0.012008630143  1.425330471742
  0.125048828125  0.012183400475  0.012183406646  1.425754062947
  0.125488281250  0.012356975178  0.012356981392  1.426157596660
  0.125927734375  0.012529356359  0.012529362616  1.426541812297
  0.126367187500  0.012700552166  0.012700558464  1.426907431810
  0.126806640625  0.012870570658  0.012870576996  1.427255159168
  0.127246093750  0.013039419808  0.013039426184  1.427585679946
  0.127685546875  0.013207107505  0.013207113918  1.427899661018
  0.128125000000  0.013373641554  0.013373648004  1.428197750355
  0.128564453125  0.013539029680  0.013539036164  1.428480576900
  0.129003906250  0.013703279523  0.013703286041  1.428748750531
  0.129443359375  0.013866398648  0.013866405198  1.429002862085
  0.129882812500  0.014028394537  0.014028401119  1.429243483456
  0.130322265625  0.014189274598  0.014189281210  1.429471167743
  0.130761718750  0.014349046160  0.014349052801  1.429686449449
  0.131201171875  0.014507716479  0.014507723148  1.429889844721
  0.131640625000  0.014665292735  0.014665299431  1.430081851638
  0.132080078125  0.014821782035  0.014821788758  1.430262950520
  0.132519531250  0.014977191415  0.014977198163  1.430433604270
  0.132958984375  0.015131527839  0.015131534611  1.430594258746
  0.133398437500  0.015284798201  0.015284804996  1.430745343138
  0.133837890625  0.015437009326  0.015437016142  1.430887270378
  0.134277343750  0.015588167970  0.015588174808  1.431020437551
  0.134716796875  0.015738280823  0.015738287681  1.431145226321
  0.135156250000  0.015887354508  0.015887361386  1.431262003362
  0.135595703125  0.016035395582  0.016035402479  1.431371120792
  0.136035156250  0.016182410540  0.016182417455  1.431472916618
  0.136474609375  0.016328405810  0.016328412742  1.431567715169
  0.136914062500  0.016473387760  0.016473394708  1.431655827538
  0.137353515625  0.016617362694  0.016617369657  1.431737552015
  0.137792968750  0.016760336856  0.016760343834  1.431813174520
  0.138232421875  0.016902316430  0.016902323422  1.431882969029
  0.138671875000  0.017043307539  0.017043314545  1.431947197992
  0.139111328125  0.017183316251  0.017183323269  1.432006112748
  0.139550781250  0.017322348571  0.017322355601  1.432059953930
  0.139990234375  0.017460410452  0.017460417493  1.432108951858
  0.140429687500  0.017597507787  0.017597514838  1.432153326932
  0.140869140625  0.017733646414  0.017733653475  1.432193290006
  0.141308593750  0.017868832118  0.017868839189  1.432229042757
  0.141748046875  0.018003070629  0.018003077708  1.432260778046
  0.142187500000  0.018136367622  0.018136374710  1.432288680265
  0.142626953125  0.018268728722  0.018268735817  1.432312925674
  0.143066406250  0.018400159500  0.018400166601  1.432333682730
  0.143505859375  0.018530665476  0.018530672584  1.432351112406
  0.143945312500  0.018660252120  0.018660259233  1.432365368494
  0.144384765625  0.018788924851  0.018788931969  1.432376597909
  0.144824218750  0.018916689040  0.018916696162  1.432384940969
  0.145263671875  0.019043550007  0.019043557133  1.432390531676
  0.145703125000  0.019169513025  0.019169520155  1.432393497982
  0.146142578125  0.019294583321  0.019294590454  1.432393962047
  0.146582031250  0.019418766074  0.019418773209  1.432392040487
  0.147021484375  0.019542066414  0.019542073551  1.432387844610
  0.147460937500  0.019664489430  0.019664496569  1.432381480651
  0.147900390625  0.019786040162  0.019786047302  1.432373049988
  0.148339843750  0.019906723607  0.019906730748  1.432362649356
  0.148779296875  0.020026544719  0.020026551860  1.432350371052
  0.149218750000  0.020145508406  0.020145515546  1.432336303128
  0.149658203125  0.020263619535  0.020263626674  1.432320529583
  0.150097656250  0.020380882929  0.020380890067  1.432303130538
  0.150537109375  0.020497303370  0.020497310507  1.432284182414
  0.150976562500  0.020612885600  0.020612892734  1.432263758092
  0.151416015625  0.020727634317  0.020727641449  1.432241927078
  0.151855468750  0.020841554181  0.020841561311  1.432218755650
  0.152294921875  0.020954649811  0.020954656938  1.432194307008
  0.152734375000  0.021066925788  0.021066932911  1.432168641408
  0.153173828125  0.021178386651  0.021178393771  1.432141816302
  0.153613281250  0.021289036905  0.021289044020  1.432113886461
  0.154052734375  0.021398881012  0.021398888123  1.432084904098
  0.154492187500  0.021507923401  0.021507930507  1.432054918987
  0.154931640625  0.021616168461  0.021616175562  1.432023978572
  0.155371093750  0.021723620546  0.021723627641  1.431992128077
  0.155810546875  0.021830283971  0.021830291060  1.431959410604
  0.156250000000  0.021936163019  0.021936170103  1.431925867237
  0.156689453125  0.022041261936  0.022041269013  1.431891537127
  0.157128906250  0.022145584932  0.022145592002  1.431856457589
  0.157568359375  0.022249136183  0.022249143246  1.431820664181
  0.158007812500  0.022351919832  0.022351926888  1.431784190791
  0.158447265625  0.022453939987  0.022453947035  1.431747069710
  0.158886718750  0.022555200723  0.022555207764  1.431709331707
  0.159326171875  0.022655706083  0.022655713115  1.431671006103
  0.159765625000  0.022755460076  0.022755467100  1.431632120834
  0.160205078125  0.022854466678  0.022854473694  1.431592702520
  0.160644531250  0.022952729837  0.022952736844  1.431552776522
  0.161083984375  0.023050253466  0.023050260463  1.431512367006
  0.161523437500  0.023147041447  0.023147048435  1.431471496993
  0.161962890625  0.023243097633  0.023243104612  1.431430188417
  0.162402343750  0.023338425846  0.023338432815  1.431388462176
  0.162841796875  0.023433029877  0.023433036836  1.431346338177
  0.163281250000  0.023526913489  0.023526920438  1.431303835387
  0.163720703125  0.023620080413  0.023620087352  1.431260971872
  0.164160156250  0.023712534354  0.023712541282  1.431217764846
  0.164599609375  0.023804278987  0.023804285904  1.431174230705
  0.165039062500  0.023895317957  0.023895324863  1.431130385069
  0.165478515625  0.023985654883  0.023985661778  1.431086242816
  0.165917968750  0.024075293356  0.024075300240  1.431041818121
  0.166357421875  0.024164236938  0.024164243811  1.430997124484
  0.166796875000  0.024252489166  0.024252496027  1.430952174767
  0.167236328125  0.024340053549  0.024340060398  1.430906981219
  0.167675781250  0.024426933568  0.024426940405  1.430861555510
  0.168115234375  0.024513132681  0.024513139506  1.430815908755
  0.168554687500  0.024598654317  0.024598661130  1.430770051541
  0.168994140625  0.024683501881  0.024683508681  1.430723993952
  0.169433593750  0.024767678752  0.024767685539  1.430677745593
  0.169873046875  0.024851188283  0.024851195058  1.430631315615
  0.170312500000  0.024934033804  0.024934040566  1.430584712730
  0.170751953125  0.025016218619  0.025016225368  1.430537945238
  0.171191406250  0.025097746008  0.025097752744  1.430491021047
  0.171630859375  0.025178619228  0.025178625950  1.430443947684
  0.172070312500  0.025258841509  0.025258848217  1.430396732322
  0.172509765625  0.025338416061  0.025338422756  1.430349381792
  0.172949218750  0.025417346068  0.025417352749  1.430301902599
  0.173388671875  0.025495634693  0.025495641361  1.430254300939
  0.173828125000  0.025573285076  0.025573291730  1.430206582715
  0.174267578125  0.025650300332  0.025650306972  1.430158753547
  0.174707031250  0.025726683556  0.025726690182  1.430110818789
  0.175146484375  0.025802437821  0.025802444432  1.430062783540
  0.175585937500  0.025877566176  0.025877572773  1.430014652655
  0.176025390625  0.025952071650  0.025952078232  1.429966430760
  0.176464843750  0.026025957250  0.026025963818  1.429918122259
  0.176904296875  0.026099225963  0.026099232516  1.429869731348
  0.177343750000  0.026171880753  0.026171887291  1.429821262022
  0.177783203125  0.026243924564  0.026243931087  1.429772718088
  0.178222656250  0.026315360320  0.026315366829  1.429724103168
  0.178662109375  0.026386190924  0.026386197418  1.429675420715
  0.179101562500  0.026456419260  0.026456425739  1.429626674017
  0.179541015625  0.026526048190  0.026526054654  1.429577866203
  0.179980468750  0.026595080559  0.026595087007  1.429529000256
  0.180419921875  0.026663519189  0.026663525621  1.429480079016
  0.180859375000  0.026731366885  0.026731373302  1.429431105187
  0.181298828125  0.026798626433  0.026798632835  1.429382081345
  0.181738281250  0.026865300599  0.026865306986  1.429333009943
  0.182177734375  0.026931392131  0.026931398502  1.429283893318
  0.182617187500  0.026996903758  0.026996910113  1.429234733695
  0.183056640625  0.027061838191  0.027061844531  1.429185533193
  0.183496093750  0.027126198122  0.027126204446  1.429136293830
  0.183935546875  0.027189986226  0.027189992534  1.429087017527
  0.184375000000  0.027253205159  0.027253211451  1.429037706117
  0.184814453125  0.027315857560  0.027315863836  1.428988361342
  0.185253906250  0.027377946051  0.027377952311  1.428938984862
  0.185693359375  0.027439473237  0.027439479481  1.428889578259
  0.186132812500  0.027500441703  0.027500447931  1.428840143039
  0.186572265625  0.027560854020  0.027560860232  1.428790680635
  0.187011718750  0.027620712741  0.027620718937  1.428741192415
  0.187451171875  0.027680020404  0.027680026583  1.428691679678
  0.187890625000  0.027738779527  0.027738785690  1.428642143664
  0.188330078125  0.027796992614  0.027796998761  1.428592585553
  0.188769531250  0.027854662154  0.027854668285  1.428543006467
  0.189208984375  0.027911790618  0.027911796732  1.428493407479
  0.189648437500  0.027968380461  0.027968386559  1.428443789606
  0.190087890625  0.028024434123  0.028024440205  1.428394153819
  0.190527343750  0.028079954029  0.028079960094  1.428344501043
  0.190966796875  0.028134942588  0.028134948637  1.428294832158
  0.191406250000  0.028189402194  0.028189408226  1.428245148002
  0.191845703125  0.028243335224  0.028243341240  1.428195449374
  0.192285156250  0.028296744044  0.028296750042  1.428145737035
  0.192724609375  0.028349631000  0.028349636983  1.428096011708
  0.193164062500  0.028401998429  0.028402004394  1.428046274083
  0.193603515625  0.028453848649  0.028453854598  1.427996524818
  0.194042968750  0.028505183965  0.028505189897  1.427946764537
  0.194482421875  0.028556006668  0.028556012584  1.427896993836
  0.194921875000  0.028606319035  0.028606324934  1.427847213282
  0.195361328125  0.028656123329  0.028656129211  1.427797423416
  0.195800781250  0.028705421798  0.028705427663  1.427747624752
  0.196240234375  0.028754216678  0.028754222526  1.427697817780
  0.196679687500  0.028802510189  0.028802516021  1.427648002966
  0.197119140625  0.028850304540  0.028850310355  1.427598180755
  0.197558593750  0.028897601925  0.028897607723  1.427548351570
  0.197998046875  0.028944404525  0.028944410306  1.427498515813
  0.198437500000  0.028990714509  0.028990720274  1.427448673868
  0.198876953125  0.029036534031  0.029036539779  1.427398826100
  0.199316406250  0.029081865234  0.029081870965  1.427348972857
  0.199755859375  0.029126710248  0.029126715962  1.427299114469
  0.200195312500  0.029171071188  0.029171076885  1.427249251253
  0.200634765625  0.029214950159  0.029214955840  1.427199383507
  0.201074218750  0.029258349253  0.029258354917  1.427149511519
  0.201513671875  0.029301270549  0.029301276196  1.427099635559
  0.201953125000  0.029343716115  0.029343721745  1.427049755886
  0.202392578125  0.029385688005  0.029385693618  1.426999872747
  0.202832031250  0.029427188262  0.029427193859  1.426949986376
  0.203271484375  0.029468218919  0.029468224499  1.426900096997
  0.203710937500  0.029508781994  0.029508787557  1.426850204821
  0.204150390625  0.029548879494  0.029548885041  1.426800310051
  0.204589843750  0.029588513417  0.029588518947  1.426750412879
  0.205029296875  0.029627685747  0.029627691259  1.426700513487
  0.205468750000  0.029666398456  0.029666403952  1.426650612050
  0.205908203125  0.029704653508  0.029704658987  1.426600708732
  0.206347656250  0.029742452853  0.029742458315  1.426550803691
  0.206787109375  0.029779798431  0.029779803876  1.426500897077
  0.207226562500  0.029816692170  0.029816697599  1.426450989031
  0.207666015625  0.029853135988  0.029853141401  1.426401079688
  0.208105468750  0.029889131794  0.029889137189  1.426351169177
  0.208544921875  0.029924681482  0.029924686861  1.426301257619
  0.208984375000  0.029959786940  0.029959792302  1.426251345129
  0.209423828125  0.029994450041  0.029994455386  1.426201431817
  0.209863281250  0.030028672652  0.030028677981  1.426151517787
  0.210302734375  0.030062456627  0.030062461938  1.426101603138
  0.210742187500  0.030095803809  0.030095809104  1.426051687962
  0.211181640625  0.030128716034  0.030128721312  1.426001772348
  0.211621093750  0.030161195125  0.030161200387  1.425951856381
  0.212060546875  0.030193242896  0.030193248141  1.425901940138
  0.212500000000  0.030224861152  0.030224866381  1.425852023694
  0.212939453125  0.030256051687  0.030256056899  1.425802107121
  0.213378906250  0.030286816286  0.030286821481  1.425752190484
  0.213818359375  0.030317156723  0.030317161902  1.425702273845
  0.214257812500  0.030347074764  0.030347079927  1.425652357265
  0.214697265625  0.030376572166  0.030376577312  1.425602440797
  0.215136718750  0.030405650674  0.030405655804  1.425552524494
  0.215576171875  0.030434312027  0.030434317140  1.425502608404
  0.216015625000  0.030462557951  0.030462563047  1.425452692572
  0.216455078125  0.030490390165  0.030490395245  1.425402777040
  0.216894531250  0.030517810380  0.030517815444  1.425352861847
  0.217333984375  0.030544820296  0.030544825344  1.425302947029
  0.217773437500  0.030571421605  0.030571426636  1.425253032619
  0.218212890625  0.030597615989  0.030597621004  1.425203118647
  0.218652343750  0.030623405123  0.030623410122  1.425153205141
  0.219091796875  0.030648790672  0.030648795654  1.425103292126
  0.219531250000  0.030673774292  0.030673779258  1.425053379623
  0.219970703125  0.030698357632  0.030698362582  1.425003467653
  0.220410156250  0.030722542332  0.030722547265  1.424953556232
  0.220849609375  0.030746330021  0.030746334938  1.424903645376
  0.221289062500  0.030769722324  0.030769727225  1.424853735096
  0.221728515625  0.030792720854  0.030792725739  1.424803825402
  0.222167968750  0.030815327217  0.030815332086  1.424753916301
  0.222607421875  0.030837543012  0.030837547865  1.424704007799
  0.223046875000  0.030859369829  0.030859374666  1.424654099897
  0.223486328125  0.030880809249  0.030880814070  1.424604192596
  0.223925781250  0.030901862846  0.030901867650  1.424554285894
  0.224365234375  0.030922532185  0.030922536974  1.424504379785
  0.224804687500  0.030942818826  0.030942823599  1.424454474262
  0.225244140625  0.030962724319  0.030962729076  1.424404569317
  0.225683593750  0.030982250205  0.030982254946  1.424354664936
  0.226123046875  0.031001398020  0.031001402745  1.424304761105
  0.226562500000  0.031020169290  0.031020174000  1.424254857807
  0.227001953125  0.031038565537  0.031038570230  1.424204955022
  0.227441406250  0.031056588271  0.031056592949  1.424155052728
  0.227880859375  0.031074238998  0.031074243660  1.424105150899
  0.228320312500  0.031091519215  0.031091523861  1.424055249508
  0.228759765625  0.031108430412  0.031108435043  1.424005348524
  0.229199218750  0.031124974072  0.031124978687  1.423955447912
  0.229638671875  0.031141151671  0.031141156271  1.423905547637
  0.230078125000  0.031156964677  0.031156969261  1.423855647658
  0.230517578125  0.031172414551  0.031172419119  1.423805747932
  0.230957031250  0.031187502748  0.031187507301  1.423755848414
  0.231396484375  0.031202230715  0.031202235252  1.423705949053
  0.231835937500  0.031216599893  0.031216604415  1.423656049796
  0.232275390625  0.031230611715  0.031230616221  1.423606150586
  0.232714843750  0.031244267607  0.031244272098  1.423556251362
  0.233154296875  0.031257568991  0.031257573466  1.423506352059
  0.233593750000  0.031270517278  0.031270521739  1.423456452609
  0.234033203125  0.031283113876  0.031283118322  1.423406552938
