radius      S_expected         S_actual            Error 
  0.200000000000  0.081448953431  0.000000000000  0.081647363152
  0.201550387597  0.081732255296  0.081731330743  0.005704800403
  0.203100775194  0.081987685038  0.081986760486  0.005719082307
  0.204651162791  0.082215385307  0.082214460756  0.005731433028
  0.206201550388  0.082415498164  0.082414573614  0.005741864009
  0.207751937984  0.082588164129  0.082587239580  0.005750386690
  0.209302325581  0.082733521247  0.082732596698  0.005757012507
  0.210852713178  0.082851704181  0.082850779634  0.005761752893
  0.212403100775  0.082942843323  0.082941918777  0.005764619281
  0.213953488372  0.083007063923  0.083006139378  0.005765623097
  0.215503875969  0.083044485233  0.083043560689  0.005764775765
  0.217054263566  0.083055219668  0.083054295124  0.005762088708
  0.218604651163  0.083039371977  0.083038447434  0.005757573342
  0.220155038760  0.082997038426  0.082996113885  0.005751241082
  0.221705426357  0.082928305991  0.082927381451  0.005743103340
  0.223255813953  0.082833251555  0.082832327016  0.005733171521
  0.224806201550  0.082711941113  0.082711016576  0.005721457032
  0.226356589147  0.082564428987  0.082563504450  0.005707971272
  0.227906976744  0.082390757036  0.082389832501  0.005692725637
  0.229457364341  0.082190953882  0.082190029348  0.005675731522
  0.231007751938  0.081965034132  0.081964109600  0.005657000316
  0.232558139535  0.081712997613  0.081712073082  0.005636543405
  0.234108527132  0.081434828607  0.081433904077  0.005614372171
  0.235658914729  0.081130495100  0.081129570572  0.005590497992
  0.237209302326  0.080799948045  0.080799023519  0.005564932244
  0.238759689922  0.080443120634  0.080442196110  0.005537686296
  0.240310077519  0.080059927596  0.080059003073  0.005508771517
  0.241860465116  0.079650264516  0.079649339995  0.005478199270
  0.243410852713  0.079214007193  0.079213082674  0.005445980913
  0.244961240310  0.078751011028  0.078750086511  0.005412127802
  0.246511627907  0.078261110474  0.078260185959  0.005376651289
  0.248062015504  0.077744118534  0.077743194021  0.005339562721
  0.249612403101  0.077199826337  0.077198901826  0.005300873441
  0.251162790698  0.076628002801  0.076627078292  0.005260594789
  0.252713178295  0.076028394396  0.076027469889  0.005218738102
  0.254263565891  0.075400725022  0.075399800518  0.005175314708
  0.255813953488  0.074744696035  0.074743771534  0.005130335937
  0.257364341085  0.074059986423  0.074059061924  0.005083813111
  0.258914728682  0.073346253171  0.073345328674  0.005035757550
  0.260465116279  0.072603131833  0.072602207339  0.004986180567
  0.262015503876  0.071830237339  0.071829312847  0.004935093474
  0.263565891473  0.071027165070  0.071026240582  0.004882507576
  0.265116279070  0.070193492224  0.070192567739  0.004828434177
  0.266666666667  0.069328779514  0.069327855032  0.004772884573
  0.268217054264  0.068432573218  0.068431648739  0.004715870059
  0.269767441860  0.067504407633  0.067503483157  0.004657401923
  0.271317829457  0.066543807940  0.066542883468  0.004597491450
  0.272868217054  0.065550293540  0.065549369071  0.004536149921
  0.274418604651  0.064523381858  0.064522457393  0.004473388611
  0.275968992248  0.063462592675  0.063461668214  0.004409218793
  0.277519379845  0.062367452974  0.062366528517  0.004343651732
  0.279069767442  0.061237502345  0.061236577892  0.004276698693
  0.280620155039  0.060072298933  0.060071374484  0.004208370932
  0.282170542636  0.058871425938  0.058870501493  0.004138679703
  0.283720930233  0.057634498651  0.057633574211  0.004067636256
  0.285271317829  0.056361171996  0.056360247561  0.003995251834
  0.286821705426  0.055051148528  0.055050224098  0.003921537678
  0.288372093023  0.053704186845  0.053703262420  0.003846505021
  0.289922480620  0.052320110312  0.052319185892  0.003770165096
  0.291472868217  0.050898816016  0.050897891601  0.003692529127
  0.293023255814  0.049440283826  0.049439359417  0.003613608335
  0.294573643411  0.047944585414  0.047943661011  0.003533413936
  0.296124031008  0.046411893079  0.046410968681  0.003451957143
  0.297674418605  0.044842488202  0.044841563811  0.003369249161
  0.299224806202  0.043236769129  0.043235844744  0.003285301192
  0.300775193798  0.041595258269  0.041594333891  0.003200124433
  0.302325581395  0.039918608210  0.039917683839  0.003113730076
  0.303875968992  0.038207606612  0.038206682249  0.003026129308
  0.305426356589  0.036463179682  0.036462255326  0.002937333311
  0.306976744186  0.034686394015  0.034685469667  0.002847353263
  0.308527131783  0.032878456632  0.032877532291  0.002756200335
  0.310077519380  0.031040713045  0.031039788712  0.002663885695
  0.311627906977  0.029174643253  0.029173718928  0.002570420505
  0.313178294574  0.027281855577  0.027280931262  0.002475815922
  0.314728682171  0.025364078324  0.025363154017  0.002380083098
  0.316279069767  0.023423149307  0.023422225010  0.002283233179
  0.317829457364  0.021461003326  0.021460079039  0.002185277307
  0.319379844961  0.019479657751  0.019478733474  0.002086226619
  0.320930232558  0.017481196426  0.017480272159  0.001986092247
  0.322480620155  0.015467752161  0.015466827905  0.001884885315
  0.324031007752  0.013441488130  0.013440563885  0.001782616946
  0.325581395349  0.011404578514  0.011403654280  0.001679298254
  0.327131782946  0.009359188791  0.009358264570  0.001574940351
  0.328682170543  0.007307456047  0.007306531838  0.001469554342
  0.330232558140  0.005251469713  0.005250545517  0.001363151325
  0.331782945736  0.003193253114  0.003192328931  0.001255742397
  0.333333333333  0.001134746181  0.001133822011  0.001147338648
  0.334883720930 -0.000922210351 -0.000923134506  0.001037951161
  0.336434108527 -0.002975888981 -0.002976813122  0.000927591017
  0.337984496124 -0.005024687510 -0.005025611635  0.000816269292
  0.339534883721 -0.007067138960 -0.007068063069  0.000703997060
  0.341085271318 -0.009101919273 -0.009102843367  0.000590785394
  0.342635658915 -0.011127852732 -0.011128776809  0.000476645374
  0.344186046512 -0.013143915141 -0.013144839200  0.000361588103
  0.345736434109 -0.015149234837 -0.015150158878  0.000245624788
  0.347286821705 -0.017143091671 -0.017144015693  0.000128767213
  0.348837209302 -0.019124914097 -0.019125838100  0.000011059168
  0.350387596899 -0.021094274603 -0.021095198586  0.000107600085
  0.351937984496 -0.023050883661 -0.023051807623  0.000227076813
  0.353488372093 -0.024994582462 -0.024995506403  0.000347406159
  0.355038759690 -0.026925334648 -0.026926258567  0.000468576010
  0.356589147287 -0.028843217287 -0.028844141183  0.000590575160
  0.358139534884 -0.030748411311 -0.030749335183  0.000713392544
  0.359689922481 -0.032641191629 -0.032642115476  0.000837017141
  0.361240310078 -0.034521917106 -0.034522840928  0.000961437953
  0.362790697674 -0.036391020584 -0.036391944379  0.001086643991
  0.364341085271 -0.038248999091 -0.038249922859  0.001212624276
  0.365891472868 -0.040096404364 -0.040097328104  0.001339367837
  0.367441860465 -0.041933833797 -0.041934757508  0.001466863709
  0.368992248062 -0.043761921879 -0.043762845559  0.001595100934
  0.370542635659 -0.045581332206 -0.045582255855  0.001724068562
  0.372093023256 -0.047392750087 -0.047393673704  0.001853755647
  0.373643410853 -0.049196875784 -0.049197799367  0.001984151251
  0.375193798450 -0.050994418384 -0.050995341932  0.002115244441
  0.376744186047 -0.052786090312 -0.052787013824  0.002247024291
  0.378294573643 -0.054572602460 -0.054573525935  0.002379479881
  0.379844961240 -0.056354659925 -0.056355583362  0.002512600297
  0.381395348837 -0.058132958311 -0.058133881707  0.002646374632
  0.382945736434 -0.059908180572 -0.059909103928  0.002780791984
  0.384496124031 -0.061680994366 -0.061681917678  0.002915841460
  0.386046511628 -0.063452049861 -0.063452973129  0.003051512169
  0.387596899225 -0.065221977977 -0.065222901200  0.003187793231
  0.389147286822 -0.066991389012 -0.066992312188  0.003324673770
  0.390697674419 -0.068760871609 -0.068761794735  0.003462142915
  0.392248062016 -0.070530992041 -0.070531915117  0.003600189805
  0.393798449612 -0.072302293770 -0.072303216793  0.003738803582
  0.395348837209 -0.074075297240 -0.074076220209  0.003877973397
  0.396899224806 -0.075850499892 -0.075851422805  0.004017688406
  0.398449612403 -0.077628376350 -0.077629299204  0.004157937773
  0.400000000000 -0.079409378762 -0.079410301557  0.004298710665
  0.401550387597 -0.081193937285 -0.081194860017  0.004439996261
  0.403100775194 -0.082982460660 -0.082983383327  0.004581783742
  0.404651162791 -0.084775336891 -0.084776259491  0.004724062298
  0.406201550388 -0.086572933994 -0.086573856525  0.004866821124
  0.407751937984 -0.088375600797 -0.088376523257  0.005010049424
  0.409302325581 -0.090183667798 -0.090184590183  0.005153736406
  0.410852713178 -0.091997448039 -0.091998370347  0.005297871287
  0.412403100775 -0.093817238021 -0.093818160250  0.005442443289
  0.413953488372 -0.095643318620 -0.095644240767  0.005587441642
  0.415503875969 -0.097475956020 -0.097476878082  0.005732855581
  0.417054263566 -0.099315402645 -0.099316324619  0.005878674351
  0.418604651163 -0.101161898087 -0.101162819970  0.006024887200
  0.420155038760 -0.103015670031 -0.103016591819  0.006171483385
  0.421705426357 -0.104876935169 -0.104877856860  0.006318452171
  0.423255813953 -0.106745900103 -0.106746821692  0.006465782826
  0.424806201550 -0.108622762233 -0.108623683718  0.006613464629
  0.426356589147 -0.110507710637 -0.110508632014  0.006761486863
  0.427906976744 -0.112400926926 -0.112401848191  0.006909838819
  0.429457364341 -0.114302586095 -0.114303507243  0.007058509795
  0.431007751938 -0.116212857351 -0.116213778379  0.007207489095
  0.432558139535 -0.118131904930 -0.118132825835  0.007356766032
  0.434108527132 -0.120059888905 -0.120060809681  0.007506329923
  0.435658914729 -0.121996965970 -0.121997886612  0.007656170094
  0.437209302326 -0.123943290222 -0.123944210726  0.007806275876
  0.438759689922 -0.125899013930 -0.125899934291  0.007956636609
  0.440310077519 -0.127864288291 -0.127865208505  0.008107241637
  0.441860465116 -0.129839264184 -0.129840184246  0.008258080312
  0.443410852713 -0.131824092910 -0.131825012813  0.008409141993
  0.444961240310 -0.133818926927 -0.133819846666  0.008560416046
  0.446511627907 -0.135823920589 -0.135824840159  0.008711891839
  0.448062015504 -0.137839230866 -0.137840150260  0.008863558752
  0.449612403101 -0.139865018074 -0.139865937287  0.009015406167
  0.451162790698 -0.141901446595 -0.141902365620  0.009167423471
  0.452713178295 -0.143948685593 -0.143949604423  0.009319600060
  0.454263565891 -0.146006909737 -0.146007828366  0.009471925331
  0.455813953488 -0.148076299912 -0.148077218333  0.009624388686
  0.457364341085 -0.150157043929 -0.150157962134  0.009776979533
  0.458914728682 -0.152249337236 -0.152250255218  0.009929687279
  0.460465116279 -0.154353383617 -0.154354301368  0.010082501338
  0.462015503876 -0.156469395888 -0.156470313399  0.010235411120
  0.463565891473 -0.158597596577 -0.158598513841  0.010388406038
  0.465116279070 -0.160738218600 -0.160739135608  0.010541475502
  0.466666666667 -0.162891505911 -0.162892422653  0.010694608917
  0.468217054264 -0.165057714132 -0.165058630600  0.010847795685
  0.469767441860 -0.167237111157 -0.167238027342  0.011001025196
  0.471317829457 -0.169429977721 -0.169430893611  0.011154286830
  0.472868217054 -0.171636607919 -0.171637523505  0.011307569952
  0.474418604651 -0.173857309686 -0.173858224956  0.011460863904
  0.475968992248 -0.176092405201 -0.176093320145  0.011614158003
  0.477519379845 -0.178342231229 -0.178343145836  0.011767441535
  0.479069767442 -0.180607139365 -0.180608053622  0.011920703742
  0.480620155039 -0.182887496184 -0.182888410080  0.012073933817
  0.482170542636 -0.185183683268 -0.185184596790  0.012227120892
  0.483720930233 -0.187496097100 -0.187497010235  0.012380254021
  0.485271317829 -0.189825148798 -0.189826061531  0.012533322168
  0.486821705426 -0.192171263674 -0.192172175992  0.012686314182
  0.488372093023 -0.194534880596 -0.194535792485  0.012839218780
  0.489922480620 -0.196916451124 -0.196917362568  0.012992024511
  0.491472868217 -0.199316438396 -0.199317349380  0.013144719729
  0.493023255814 -0.201735315741 -0.201736226249  0.013297292549
  0.494573643411 -0.204173564997 -0.204174475011  0.013449730801
  0.496124031008 -0.206631674491 -0.206632583995  0.013602021974
  0.497674418605 -0.209110136676 -0.209111045652  0.013754153145
  0.499224806202 -0.211609445389 -0.211610353819  0.013906110903
  0.500775193798 -0.214130092709 -0.214131000572  0.014057881252
  0.502325581395 -0.216672565396 -0.216673472674  0.014209449504
  0.503875968992 -0.219237340909 -0.219238247580  0.014360800141
  0.505426356589 -0.221824882968 -0.221825789012  0.014511916668
  0.506976744186 -0.224435636692 -0.224436542087  0.014662781433
  0.508527131783 -0.227070023290 -0.227070928012  0.014813375419
  0.510077519380 -0.229728434341 -0.229729338367  0.014963678008
  0.511627906977 -0.232411225683 -0.232412128990  0.015113666708
  0.513178294574 -0.235118710961 -0.235119613522  0.015263316847
  0.514728682171 -0.237851154873 -0.237852056663  0.015412601237
  0.516279069767 -0.240608766210 -0.240609667201  0.015561489795
  0.517829457364 -0.243391690753 -0.243392590918  0.015709949151
  0.519379844961 -0.246200004148 -0.246200903457  0.015857942239
  0.520930232558 -0.249033704871 -0.249034603294  0.016005427894
  0.522480620155 -0.251892707420 -0.251893604927  0.016152360487
  0.524031007752 -0.254776835883 -0.254777732442  0.016298689646
  0.525581395349 -0.257685818047 -0.257686713624  0.016444360105
  0.527131782946 -0.260619280200 -0.260620174760  0.016589311777
  0.528682170543 -0.263576742822 -0.263577636331  0.016733480135
  0.530232558140 -0.266557617313 -0.266558509733  0.016876797010
  0.531782945736 -0.269561203935 -0.269562095228  0.017019191931
  0.533333333333 -0.272586691106 -0.272587581233  0.017160594123
  0.534883720930 -0.275633156194 -0.275634045114  0.017300935247
  0.536434108527 -0.278699567891 -0.278700455561  0.017440152919
  0.537984496124 -0.281784790257 -0.281785676634  0.017578194943
  0.539534883721 -0.284887588459 -0.284888473498  0.017715024052
  0.541085271318 -0.288006636195 -0.288007519848  0.017850622807
  0.542635658915 -0.291140524745 -0.291141406964  0.017984998106
  0.544186046512 -0.294287773560 -0.294288654295  0.018118184670
  0.545736434109 -0.297446842222 -0.297447721420  0.018250246780
  0.547286821705 -0.300616143589 -0.300617021198  0.018381277687
  0.548837209302 -0.303794057909 -0.303794933872  0.018511396345
  0.550387596899 -0.306978947611 -0.306979821871  0.018640741515
  0.551937984496 -0.310169172511 -0.310170045007  0.018769463723
  0.553488372093 -0.313363105112 -0.313363975783  0.018897715974
  0.555038759690 -0.316559145702 -0.316560014485  0.019025644330
  0.556589147287 -0.319755736947 -0.319756603775  0.019153379494
  0.558139534884 -0.322951377684 -0.322952242489  0.019281030306
  0.559689922481 -0.326144635670 -0.326145498381  0.019408679688
  0.561240310078 -0.329334159055 -0.329335019598  0.019536383142
  0.562790697674 -0.332518686387 -0.332519544686  0.019664169536
  0.564341085271 -0.335697055024 -0.335697911002  0.019792043664
  0.565891472868 -0.338868207850 -0.338869061424  0.019919989930
  0.567441860465 -0.342031198250 -0.342032049337  0.020047976580
  0.568992248062 -0.345185193355 -0.345186041868  0.020175959946
  0.570542635659 -0.348329475592 -0.348330321439  0.020303888376
  0.572093023256 -0.351463442623 -0.351464285713  0.020431705599
  0.573643410853 -0.354586605802 -0.354587446037  0.020559353466
  0.575193798450 -0.357698587266 -0.357699424547  0.020686774047
  0.576744186047 -0.360799115847 -0.360799950070  0.020813911139
  0.578294573643 -0.363888021962 -0.363888853020  0.020940711282
  0.579844961240 -0.366965231665 -0.366966059447  0.021067124368
  0.581395348837 -0.370030760037 -0.370031584428  0.021193103944
  0.582945736434 -0.373084704099 -0.373085524982  0.021318607284
  0.584496124031 -0.376127235398 -0.376128052649  0.021443595305
  0.586046511628 -0.379158592427 -0.379159405918  0.021568032377
  0.587596899225 -0.382179073016 -0.382179882617  0.021691886069
  0.589147286822 -0.385189026815 -0.385189832390  0.021815126870
  0.590697674419 -0.388188847971 -0.388189649378  0.021937727891
  0.592248062016 -0.391178968081 -0.391179765174  0.022059664579
  0.593798449612 -0.394159849500 -0.394160642129  0.022180914442
  0.595348837209 -0.397131979046 -0.397132767054  0.022301456797
  0.596899224806 -0.400095862149 -0.400096645375  0.022421272532
  0.598449612403 -0.403052017461 -0.403052795738  0.022540343907
  0.600000000000 -0.406000971942 -0.406001745096  0.022658654359
  0.601550387597 -0.408943256425 -0.408944024278  0.022776188348
  0.603100775194 -0.411879401659 -0.411880164024  0.022892931209
  0.604651162791 -0.414809934798 -0.414810691485  0.023008869029
  0.606201550388 -0.417735376348 -0.417736127157  0.023123988540
  0.607751937984 -0.420656237514 -0.420656982239  0.023238277025
  0.609302325581 -0.423573017948 -0.423573756378  0.023351722238
  0.610852713178 -0.426486203860 -0.426486935774  0.023464312339
  0.612403100775 -0.429396266457 -0.429396991628  0.023576035829
  0.613953488372 -0.432303660694 -0.432304378885  0.023686881506
  0.615503875969 -0.435208824291 -0.435209535259  0.023796838417
  0.617054263566 -0.438112177007 -0.438112880500  0.023905895825
  0.618604651163 -0.441014120127 -0.441014815883  0.024014043176
  0.620155038760 -0.443915036144 -0.443915723892  0.024121270074
  0.621705426357 -0.446815288610 -0.446815968072  0.024227566255
  0.623255813953 -0.449715222138 -0.449715893024  0.024332921574
  0.624806201550 -0.452615162526 -0.452615824536  0.024437325981
  0.626356589147 -0.455515416987 -0.455516069812  0.024540769515
  0.627906976744 -0.458416274475 -0.458416917794  0.024643242286
  0.629457364341 -0.461318006083 -0.461318639563  0.024744734470
  0.631007751938 -0.464220865498 -0.464221488798  0.024845236294
  0.632558139535 -0.467125089516 -0.467125702278  0.024944738038
  0.634108527132 -0.470030898580 -0.470031500438  0.025043230022
  0.635658914729 -0.472938497361 -0.472939087935  0.025140702601
  0.637209302326 -0.475848075356 -0.475848654251  0.025237146166
  0.638759689922 -0.478759807491 -0.478760374301  0.025332551134
  0.640310077519 -0.481673854749 -0.481674409052  0.025426907949
  0.641860465116 -0.484590364783 -0.484590906143  0.025520207078
  0.643410852713 -0.487509472547 -0.487510000512  0.025612439008
  0.644961240310 -0.490431300903 -0.490431815008  0.025703594247
  0.646511627907 -0.493355961240 -0.493356461001  0.025793663318
  0.648062015504 -0.496283554072 -0.496284038989  0.025882636762
  0.649612403101 -0.499214169627 -0.499214639184  0.025970505132
  0.651162790698 -0.502147888431 -0.502148342093  0.026057258999
  0.652713178295 -0.505084781872 -0.505085219086  0.026142888943
  0.654263565891 -0.508024912756 -0.508025332950  0.026227385559
  0.655813953488 -0.510968335849 -0.510968738430  0.026310739452
  0.657364341085 -0.513915098405 -0.513915482761  0.026392941240
  0.658914728682 -0.516865240683 -0.516865606180  0.026473981550
  0.660465116279 -0.519818796452 -0.519819142434  0.026553851021
  0.662015503876 -0.522775793484 -0.522776119273  0.026632540300
  0.663565891473 -0.525736254036 -0.525736558931  0.026710040047
  0.665116279070 -0.528700195323 -0.528700478597  0.026786340929
  0.666666666667 -0.531667629980 -0.531667890884  0.026861433623
  0.668217054264 -0.534638566519 -0.534638804276  0.026935308816
  0.669767441860 -0.537613009772 -0.537613223579  0.027007957205
  0.671317829457 -0.540590961332 -0.540591150359  0.027079369493
  0.672868217054 -0.543572419989 -0.543572583376  0.027149536395
