radius      S_expected         S_actual            Error 
  0.100000000000  0.000000000000  0.000000000000  0.070721850433
  0.101757812500  0.004822674668  0.004822674738  0.000710440218
  0.103515625000  0.008897492653  0.008897492607  0.001412242286
  0.105273437500  0.012259317022  0.012259316976  0.002105443811
  0.107031250000  0.014940998426  0.014940998380  0.002790082694
  0.108789062500  0.016973522148  0.016973522101  0.003466197123
  0.110546875000  0.018386142228  0.018386142183  0.004133825555
  0.112304687500  0.019206504000  0.019206503955  0.004793006701
  0.114062500000  0.019460756189  0.019460756144  0.005443779509
  0.115820312500  0.019173653624  0.019173653579  0.006086183149
  0.117578125000  0.018368651460  0.018368651416  0.006720256991
  0.119335937500  0.017067991748  0.017067991704  0.007346040591
  0.121093750000  0.015292783050  0.015292783007  0.007963573666
  0.122851562500  0.013063073779  0.013063073736  0.008572896075
  0.124609375000  0.010397919814  0.010397919771  0.009174047802
  0.126367187500  0.007315446927  0.007315446885  0.009767068932
  0.128125000000  0.003832908483  0.003832908442  0.010351999632
  0.129882812500 -0.000033261179 -0.000033261219  0.010928880132
  0.131640625000 -0.004267397296 -0.004267397336  0.011497750699
  0.133398437500 -0.008854558828 -0.008854558868  0.012058651626
  0.135156250000 -0.013780485906 -0.013780485944  0.012611623205
  0.136914062500 -0.019031560283 -0.019031560321  0.013156705712
  0.138671875000 -0.024594768568 -0.024594768605  0.013693939391
  0.140429687500 -0.030457667992 -0.030457668029  0.014223364429
  0.142187500000 -0.036608354513 -0.036608354549  0.014745020950
  0.143945312500 -0.043035433076 -0.043035433111  0.015258948991
  0.145703125000 -0.049727989847 -0.049727989882  0.015765188492
  0.147460937500 -0.056675566283 -0.056675566317  0.016263779280
  0.149218750000 -0.063868134881 -0.063868134914  0.016754761059
  0.150976562500 -0.071296076496 -0.071296076529  0.017238173397
  0.152734375000 -0.078950159091 -0.078950159122  0.017714055717
  0.154492187500 -0.086821517828 -0.086821517858  0.018182447284
  0.156250000000 -0.094901636396 -0.094901636425  0.018643387203
  0.158007812500 -0.103182329485 -0.103182329514  0.019096914406
  0.159765625000 -0.111655726327 -0.111655726355  0.019543067650
  0.161523437500 -0.120314255223 -0.120314255251  0.019981885510
  0.163281250000 -0.129150628995 -0.129150629022  0.020413406378
  0.165039062500 -0.138157831290 -0.138157831315  0.020837668453
  0.166796875000 -0.147329103682 -0.147329103707  0.021254709748
  0.168554687500 -0.156657933524 -0.156657933549  0.021664568081
  0.170312500000 -0.166138042481 -0.166138042504  0.022067281081
  0.172070312500 -0.175763375718 -0.175763375741  0.022462886184
  0.173828125000 -0.185528091693 -0.185528091714  0.022851420634
  0.175585937500 -0.195426552509 -0.195426552530  0.023232921488
  0.177343750000 -0.205453314801 -0.205453314822  0.023607425616
  0.179101562500 -0.215603121112 -0.215603121132  0.023974969706
  0.180859375000 -0.225870891734 -0.225870891753  0.024335590265
  0.182617187500 -0.236251716984 -0.236251717002  0.024689323623
  0.184375000000 -0.246740849886 -0.246740849903  0.025036205942
  0.186132812500 -0.257333699234 -0.257333699251  0.025376273214
  0.187890625000 -0.268025823017 -0.268025823033  0.025709561271
  0.189648437500 -0.278812922176 -0.278812922191  0.026036105788
  0.191406250000 -0.289690834681 -0.289690834695  0.026355942290
  0.193164062500 -0.300655529904 -0.300655529918  0.026669106157
  0.194921875000 -0.311703103277 -0.311703103290  0.026975632629
  0.196679687500 -0.322829771204 -0.322829771217  0.027275556814
  0.198437500000 -0.334031866233 -0.334031866245  0.027568913691
  0.200195312500 -0.345305832454 -0.345305832465  0.027855738121
  0.201953125000 -0.356648221123 -0.356648221134  0.028136064847
  0.203710937500 -0.368055686491 -0.368055686502  0.028409928507
  0.205468750000 -0.379524981835 -0.379524981845  0.028677363632
  0.207226562500 -0.391052955667 -0.391052955676  0.028938404659
  0.208984375000 -0.402636548125 -0.402636548134  0.029193085933
  0.210742187500 -0.414272787531 -0.414272787540  0.029441441716
  0.212500000000 -0.425958787102 -0.425958787110  0.029683506188
  0.214257812500 -0.437691741807 -0.437691741814  0.029919313456
  0.216015625000 -0.449468925377 -0.449468925384  0.030148897560
  0.217773437500 -0.461287687434 -0.461287687441  0.030372292475
  0.219531250000 -0.473145450757 -0.473145450763  0.030589532119
  0.221289062500 -0.485039708660 -0.485039708666  0.030800650357
  0.223046875000 -0.496968022490 -0.496968022496  0.031005681005
  0.224804687500 -0.508928019230 -0.508928019235  0.031204657836
  0.226562500000 -0.520917389200 -0.520917389206  0.031397614582
  0.228320312500 -0.532933883867 -0.532933883872  0.031584584941
  0.230078125000 -0.544975313732 -0.544975313737  0.031765602579
  0.231835937500 -0.557039546317 -0.557039546321  0.031940701137
  0.233593750000 -0.569124504230 -0.569124504235  0.032109914228
  0.235351562500 -0.581228163311 -0.581228163315  0.032273275449
  0.237109375000 -0.593348550849 -0.593348550853  0.032430818377
  0.238867187500 -0.605483743878 -0.605483743882  0.032582576576
  0.240625000000 -0.617631867539 -0.617631867543  0.032728583599
  0.242382812500 -0.629791093501 -0.629791093504  0.032868872991
  0.244140625000 -0.641959638452 -0.641959638456  0.033003478290
  0.245898437500 -0.654135762650 -0.654135762653  0.033132433034
  0.247656250000 -0.666317768518 -0.666317768521  0.033255770755
  0.249414062500 -0.678503999310 -0.678503999313  0.033373524990
  0.251171875000 -0.690692837816 -0.690692837819  0.033485729278
  0.252929687500 -0.702882705120 -0.702882705124  0.033592417162
  0.254687500000 -0.715072059408 -0.715072059412  0.033693622191
  0.256445312500 -0.727259394813 -0.727259394816  0.033789377923
  0.258203125000 -0.739443240311 -0.739443240314  0.033879717926
  0.259960937500 -0.751622158654 -0.751622158657  0.033964675778
  0.261718750000 -0.763794745342 -0.763794745345  0.034044285066
  0.263476562500 -0.775959627632 -0.775959627636  0.034118579394
  0.265234375000 -0.788115463588 -0.788115463591  0.034187592377
  0.266992187500 -0.800260941155 -0.800260941159  0.034251357645
  0.268750000000 -0.812394777278 -0.812394777282  0.034309908844
  0.270507812500 -0.824515717043 -0.824515717047  0.034363279634
  0.272265625000 -0.836622532854 -0.836622532858  0.034411503692
  0.274023437500 -0.848714023633 -0.848714023637  0.034454614713
  0.275781250000 -0.860789014058 -0.860789014062  0.034492646407
  0.277539062500 -0.872846353815 -0.872846353819  0.034525632502
  0.279296875000 -0.884884916883 -0.884884916888  0.034553606743
  0.281054687500 -0.896903600848 -0.896903600852  0.034576602894
  0.282812500000 -0.908901326225 -0.908901326229  0.034594654734
  0.284570312500 -0.920877035821 -0.920877035826  0.034607796061
  0.286328125000 -0.932829694109 -0.932829694114  0.034616060692
  0.288085937500 -0.944758286622 -0.944758286627  0.034619482458
  0.289843750000 -0.956661819376 -0.956661819380  0.034618095209
  0.291601562500 -0.968539318300 -0.968539318305  0.034611932810
  0.293359375000 -0.980389828699 -0.980389828704  0.034601029146
  0.295117187500 -0.992212414723 -0.992212414728  0.034585418115
  0.296875000000 -1.004006158858 -1.004006158863  0.034565133631
  0.298632812500 -1.015770161433 -1.015770161438  0.034540209625
  0.300390625000 -1.027503540146 -1.027503540151  0.034510680040
  0.302148437500 -1.039205429602 -1.039205429607  0.034476578837
  0.303906250000 -1.050874980863 -1.050874980868  0.034437939988
  0.305664062500 -1.062511361022 -1.062511361028  0.034394797478
  0.307421875000 -1.074113752783 -1.074113752788  0.034347185307
  0.309179687500 -1.085681354055 -1.085681354060  0.034295137484
  0.310937500000 -1.097213377561 -1.097213377566  0.034238688032
  0.312695312500 -1.108709050459 -1.108709050464  0.034177870982
  0.314453125000 -1.120167613978 -1.120167613983  0.034112720378
  0.316210937500 -1.131588323058 -1.131588323063  0.034043270269
  0.317968750000 -1.142970446007 -1.142970446012  0.033969554717
  0.319726562500 -1.154313264172 -1.154313264177  0.033891607789
  0.321484375000 -1.165616071609 -1.165616071614  0.033809463559
  0.323242187500 -1.176878174777 -1.176878174781  0.033723156108
  0.325000000000 -1.188098892230 -1.188098892235  0.033632719521
  0.326757812500 -1.199277554329 -1.199277554333  0.033538187891
  0.328515625000 -1.210413502952 -1.210413502956  0.033439595310
  0.330273437500 -1.221506091223 -1.221506091227  0.033336975876
  0.332031250000 -1.232554683244 -1.232554683248  0.033230363688
  0.333789062500 -1.243558653838 -1.243558653841  0.033119792848
  0.335546875000 -1.254517388294 -1.254517388298  0.033005297455
  0.337304687500 -1.265430282131 -1.265430282134  0.032886911612
  0.339062500000 -1.276296740858 -1.276296740861  0.032764669416
  0.340820312500 -1.287116179748 -1.287116179751  0.032638604966
  0.342578125000 -1.297888023618 -1.297888023620  0.032508752356
  0.344335937500 -1.308611706612 -1.308611706614  0.032375145676
  0.346093750000 -1.319286672000 -1.319286672001  0.032237819012
  0.347851562500 -1.329912371968 -1.329912371970  0.032096806445
  0.349609375000 -1.340488267433 -1.340488267434  0.031952142049
  0.351367187500 -1.351013827847 -1.351013827848  0.031803859891
  0.353125000000 -1.361488531016 -1.361488531016  0.031651994030
  0.354882812500 -1.371911862925 -1.371911862924  0.031496578516
  0.356640625000 -1.382283317560 -1.382283317560  0.031337647390
  0.358398437500 -1.392602396751 -1.392602396750  0.031175234681
  0.360156250000 -1.402868609998 -1.402868609997  0.031009374409
  0.361914062500 -1.413081474326 -1.413081474324  0.030840100580
  0.363671875000 -1.423240514123 -1.423240514121  0.030667447188
  0.365429687500 -1.433345260998 -1.433345260996  0.030491448214
  0.367187500000 -1.443395253638 -1.443395253636  0.030312137622
  0.368945312500 -1.453390037666 -1.453390037662  0.030129549363
  0.370703125000 -1.463329165506 -1.463329165502  0.029943717373
  0.372460937500 -1.473212196256 -1.473212196252  0.029754675568
  0.374218750000 -1.483038695558 -1.483038695554  0.029562457848
  0.375976562500 -1.492808235474 -1.492808235470  0.029367098096
  0.377734375000 -1.502520394369 -1.502520394364  0.029168630175
  0.379492187500 -1.512174756791 -1.512174756785  0.028967087928
  0.381250000000 -1.521770913359 -1.521770913353  0.028762505178
  0.383007812500 -1.531308460657 -1.531308460651  0.028554915727
  0.384765625000 -1.540787001121 -1.540787001114  0.028344353355
  0.386523437500 -1.550206142937 -1.550206142930  0.028130851821
  0.388281250000 -1.559565499943 -1.559565499936  0.027914444857
  0.390039062500 -1.568864691527 -1.568864691519  0.027695166177
  0.391796875000 -1.578103342532 -1.578103342523  0.027473049466
  0.393554687500 -1.587281083162 -1.587281083153  0.027248128387
  0.395312500000 -1.596397548895 -1.596397548886  0.027020436576
  0.397070312500 -1.605452380389 -1.605452380379  0.026790007643
  0.398828125000 -1.614445223398 -1.614445223388  0.026556875172
  0.400585937500 -1.623375728689 -1.623375728679  0.026321072719
  0.402343750000 -1.632243551958 -1.632243551947  0.026082633813
  0.404101562500 -1.641048353749 -1.641048353738  0.025841591956
  0.405859375000 -1.649789799379 -1.649789799368  0.025597980617
  0.407617187500 -1.658467558857 -1.658467558845  0.025351833241
  0.409375000000 -1.667081306812 -1.667081306800  0.025103183240
  0.411132812500 -1.675630722419 -1.675630722407  0.024852063996
  0.412890625000 -1.684115489326 -1.684115489313  0.024598508862
  0.414648437500 -1.692535295585 -1.692535295572  0.024342551159
  0.416406250000 -1.700889833583 -1.700889833570  0.024084224177
  0.418164062500 -1.709178799974 -1.709178799961  0.023823561173
  0.419921875000 -1.717401895613 -1.717401895600  0.023560595373
  0.421679687500 -1.725558825489 -1.725558825476  0.023295359971
  0.423437500000 -1.733649298666 -1.733649298652  0.023027888126
  0.425195312500 -1.741673028214 -1.741673028200  0.022758212966
  0.426953125000 -1.749629731151 -1.749629731137  0.022486367585
  0.428710937500 -1.757519128383 -1.757519128369  0.022212385042
  0.430468750000 -1.765340944640 -1.765340944626  0.021936298364
  0.432226562500 -1.773094908422 -1.773094908408  0.021658140541
  0.433984375000 -1.780780751938 -1.780780751923  0.021377944531
  0.435742187500 -1.788398211048 -1.788398211033  0.021095743257
  0.437500000000 -1.795947025209 -1.795947025195  0.020811569605
  0.439257812500 -1.803426937420 -1.803426937405  0.020525456428
  0.441015625000 -1.810837694161 -1.810837694147  0.020237436543
  0.442773437500 -1.818179045348 -1.818179045334  0.019947542732
  0.444531250000 -1.825450744270 -1.825450744256  0.019655807740
  0.446289062500 -1.832652547542 -1.832652547527  0.019362264278
  0.448046875000 -1.839784215050 -1.839784215035  0.019066945020
  0.449804687500 -1.846845509900 -1.846845509886  0.018769882606
  0.451562500000 -1.853836198367 -1.853836198353  0.018471109638
  0.453320312500 -1.860756049843 -1.860756049829  0.018170658683
  0.455078125000 -1.867604836786 -1.867604836773  0.017868562273
  0.456835937500 -1.874382334674 -1.874382334661  0.017564852902
  0.458593750000 -1.881088321951 -1.881088321937  0.017259563029
  0.460351562500 -1.887722579979 -1.887722579966  0.016952725077
  0.462109375000 -1.894284892994 -1.894284892981  0.016644371435
  0.463867187500 -1.900775048051 -1.900775048039  0.016334534453
  0.465625000000 -1.907192834984 -1.907192834971  0.016023246447
  0.467382812500 -1.913538046351 -1.913538046339  0.015710539696
  0.469140625000 -1.919810477395 -1.919810477383  0.015396446447
  0.470898437500 -1.926009925991 -1.926009925979  0.015080998907
  0.472656250000 -1.932136192604 -1.932136192593  0.014764229250
  0.474414062500 -1.938189080245 -1.938189080234  0.014446169615
  0.476171875000 -1.944168394421 -1.944168394410  0.014126852106
  0.477929687500 -1.950073943095 -1.950073943085  0.013806308791
  0.479687500000 -1.955905536641 -1.955905536631  0.013484571704
  0.481445312500 -1.961662987797 -1.961662987787  0.013161672846
  0.483203125000 -1.967346111626 -1.967346111617  0.012837644183
  0.484960937500 -1.972954725474 -1.972954725465  0.012512517645
  0.486718750000 -1.978488648922 -1.978488648913  0.012186325131
  0.488476562500 -1.983947703748 -1.983947703740  0.011859098505
  0.490234375000 -1.989331713889 -1.989331713881  0.011530869601
  0.491992187500 -1.994640505393 -1.994640505386  0.011201670215
  0.493750000000 -1.999873906385 -1.999873906377  0.010871532115
  0.495507812500 -2.005031747021 -2.005031747014  0.010540487034
  0.497265625000 -2.010113859458 -2.010113859451  0.010208566675
  0.499023437500 -2.015120077805 -2.015120077799  0.009875802708
  0.500781250000 -2.020050238092 -2.020050238086  0.009542226774
  0.502539062500 -2.024904178230 -2.024904178224  0.009207870480
  0.504296875000 -2.029681737973 -2.029681737968  0.008872765405
  0.506054687500 -2.034382758886 -2.034382758882  0.008536943098
  0.507812500000 -2.039007084304 -2.039007084299  0.008200435076
  0.509570312500 -2.043554559298 -2.043554559294  0.007863272830
  0.511328125000 -2.048025030645 -2.048025030641  0.007525487820
  0.513085937500 -2.052418346789 -2.052418346786  0.007187111479
  0.514843750000 -2.056734357811 -2.056734357808  0.006848175210
  0.516601562500 -2.060972915394 -2.060972915391  0.006508710390
  0.518359375000 -2.065133872795 -2.065133872792  0.006168748370
  0.520117187500 -2.069217084810 -2.069217084808  0.005828320472
  0.521875000000 -2.073222407747 -2.073222407745  0.005487457993
  0.523632812500 -2.077149699394 -2.077149699392  0.005146192204
  0.525390625000 -2.080998818993 -2.080998818991  0.004804554353
  0.527148437500 -2.084769627208 -2.084769627207  0.004462575659
  0.528906250000 -2.088461986103 -2.088461986101  0.004120287322
  0.530664062500 -2.092075759109 -2.092075759108  0.003777720513
  0.532421875000 -2.095610811006 -2.095610811005  0.003434906384
  0.534179687500 -2.099067007890 -2.099067007889  0.003091876062
  0.535937500000 -2.102444217156 -2.102444217156  0.002748660653
  0.537695312500 -2.105742307471 -2.105742307471  0.002405291241
  0.539453125000 -2.108961148752 -2.108961148752  0.002061798888
  0.541210937500 -2.112100612143 -2.112100612143  0.001718214636
  0.542968750000 -2.115160569999 -2.115160569999  0.001374569508
  0.544726562500 -2.118140895859 -2.118140895859  0.001030894507
  0.546484375000 -2.121041464433 -2.121041464432  0.000687220614
  0.548242187500 -2.123862151579 -2.123862151579  0.000343578797
  0.550000000000 -2.126602834291 -2.126602834291  0.000000000000
  0.551757812500 -2.129263390674 -2.129263390673  0.000343484846
  0.553515625000 -2.131843699935 -2.131843699935  0.000686844828
  0.555273437500 -2.134343642367 -2.134343642367  0.001030049050
  0.557031250000 -2.136763099331 -2.136763099331  0.001373066633
  0.558789062500 -2.139101953245 -2.139101953245  0.001715866710
  0.560546875000 -2.141360087571 -2.141360087571  0.002058418432
  0.562304687500 -2.143537386803 -2.143537386802  0.002400690962
  0.564062500000 -2.145633736455 -2.145633736454  0.002742653478
  0.565820312500 -2.147649023052 -2.147649023051  0.003084275172
  0.567578125000 -2.149583134118 -2.149583134117  0.003425525246
  0.569335937500 -2.151435958169 -2.151435958167  0.003766372917
  0.571093750000 -2.153207384702 -2.153207384701  0.004106787411
  0.572851562500 -2.154897304193 -2.154897304192  0.004446737968
  0.574609375000 -2.156505608083 -2.156505608081  0.004786193836
  0.576367187500 -2.158032188775 -2.158032188773  0.005125124275
  0.578125000000 -2.159476939629 -2.159476939627  0.005463498553
  0.579882812500 -2.160839754956 -2.160839754953  0.005801285950
  0.581640625000 -2.162120530013 -2.162120530011  0.006138455751
  0.583398437500 -2.163319161001 -2.163319160998  0.006474977252
  0.585156250000 -2.164435545059 -2.164435545055  0.006810819755
  0.586914062500 -2.165469580262 -2.165469580258  0.007145952571
  0.588671875000 -2.166421165621 -2.166421165617  0.007480345016
  0.590429687500 -2.167290201078 -2.167290201074  0.007813966413
  0.592187500000 -2.168076587506 -2.168076587501  0.008146786091
  0.593945312500 -2.168780226708 -2.168780226703  0.008478773385
  0.595703125000 -2.169401021416 -2.169401021411  0.008809897634
  0.597460937500 -2.169938875293 -2.169938875287  0.009140128183
  0.599218750000 -2.170393692928 -2.170393692922  0.009469434380
  0.600976562500 -2.170765379843 -2.170765379837  0.009797785578
  0.602734375000 -2.171053842487 -2.171053842481  0.010125151131
  0.604492187500 -2.171258988245 -2.171258988238  0.010451500400
  0.606250000000 -2.171380725430 -2.171380725423  0.010776802745
  0.608007812500 -2.171418963292 -2.171418963284  0.011101027532
  0.609765625000 -2.171373612016 -2.171373612008  0.011424144124
  0.611523437500 -2.171244582725 -2.171244582717  0.011746121891
  0.613281250000 -2.171031787481 -2.171031787472  0.012066930202
  0.615039062500 -2.170735139287 -2.170735139277  0.012386538426
  0.616796875000 -2.170354552089 -2.170354552080  0.012704915934
  0.618554687500 -2.169889940780 -2.169889940770  0.013022032098
  0.620312500000 -2.169341221199 -2.169341221189  0.013337856290
  0.622070312500 -2.168708310135 -2.168708310125  0.013652357880
  0.623828125000 -2.167991125330 -2.167991125319  0.013965506241
  0.625585937500 -2.167189585476 -2.167189585465  0.014277270743
  0.627343750000 -2.166303610222 -2.166303610211  0.014587620755
  0.629101562500 -2.165333120175 -2.165333120163  0.014896525648
  0.630859375000 -2.164278036898 -2.164278036886  0.015203954788
  0.632617187500 -2.163138282916 -2.163138282903  0.015509877543
  0.634375000000 -2.161913781711 -2.161913781699  0.015814263277
  0.636132812500 -2.160604457730 -2.160604457718  0.016117081354
