radius      S_expected         S_actual            Error 
  0.100000000000  0.000000000000  0.000000000000  0.070721850433
  0.128125000000  0.003832908483  0.003836024961  0.010351995556
  0.156250000000 -0.094901636396 -0.094903582297  0.018643379385
  0.184375000000 -0.246740849886 -0.246742013467  0.025036195700
  0.212500000000 -0.425958787102 -0.425959356390  0.029683494460
  0.240625000000 -0.617631867539 -0.617632153632  0.032728571157
  0.268750000000 -0.812394777278 -0.812395037864  0.034309896322
  0.296875000000 -1.004006158858 -1.004006472813  0.034565121543
  0.325000000000 -1.188098892230 -1.188099148442  0.033632708272
  0.353125000000 -1.361488531016 -1.361488530328  0.031651983924
  0.381250000000 -1.521770913359 -1.521770518977  0.028762496435
  0.409375000000 -1.667081306812 -1.667080552451  0.025103175997
  0.437500000000 -1.795947025209 -1.795946116882  0.020811563925
  0.465625000000 -1.907192834984 -1.907192045851  0.016023242318
  0.493750000000 -1.999873906385 -1.999873427188  0.010871529473
  0.521875000000 -2.073222407747 -2.073222241467  0.005487456738
  0.550000000000 -2.126602834291 -2.126602797928  0.000000036362
  0.578125000000 -2.159476939629 -2.159476773349  0.005463497464
  0.606250000000 -2.171380725430 -2.171380246233  0.010776800759
  0.634375000000 -2.161913781711 -2.161912992578  0.015814260593
  0.662500000000 -2.130737429230 -2.130736520902  0.020450391398
  0.690625000000 -2.077575332299 -2.077574577938  0.024559630195
  0.718750000000 -2.002210447695 -2.002210053312  0.028016323067
  0.746875000000 -1.904475410267 -1.904475409579  0.030694945092
  0.775000000000 -1.784237936778 -1.784238192990  0.032470518625
  0.803125000000 -1.641385994154 -1.641386308109  0.033219167044
  0.831250000000 -1.475817509833 -1.475817770419  0.032818750616
  0.859375000000 -1.287436313440 -1.287436599534  0.031149624304
  0.887500000000 -1.076151654675 -1.076152223964  0.028095803909
  0.915625000000 -0.841875688945 -0.841876852527  0.023547218073
  0.943750000000 -0.584513655740 -0.584515601641  0.017403712802
  0.971875000000 -0.303945142678 -0.303942026200  0.009579292326
  1.000000000000  0.000000000000  0.000000000000  0.100000001490
