radius      S_expected         S_actual            Error 
  0.100000000000  0.000000000000  0.000000000000  0.010000000149
  0.102343750000  0.015662377702  0.015648721073  0.000013656629
  0.104687500000  0.031243275667  0.031229619038  0.000013656629
  0.107031250000  0.046742691465  0.046729034836  0.000013656629
  0.109375000000  0.062160622665  0.062146966035  0.000013656629
  0.111718750000  0.077497066837  0.077483410207  0.000013656629
  0.114062500000  0.092752021550  0.092738364921  0.000013656629
  0.116406250000  0.107925484377  0.107911827747  0.000013656629
  0.118750000000  0.123017452885  0.123003796256  0.000013656629
  0.121093750000  0.138027924646  0.138014268017  0.000013656629
  0.123437500000  0.152956897229  0.152943240600  0.000013656629
  0.125781250000  0.167804368206  0.167790711577  0.000013656629
  0.128125000000  0.182570335147  0.182556678518  0.000013656629
  0.130468750000  0.197254795622  0.197241138992  0.000013656629
  0.132812500000  0.211857747202  0.211844090572  0.000013656629
  0.135156250000  0.226379187457  0.226365530828  0.000013656629
  0.137500000000  0.240819113959  0.240805457330  0.000013656629
  0.139843750000  0.255177524279  0.255163867650  0.000013656629
  0.142187500000  0.269454415987  0.269440759358  0.000013656629
  0.144531250000  0.283649786655  0.283636130026  0.000013656629
  0.146875000000  0.297763633854  0.297749977225  0.000013656629
  0.149218750000  0.311795955155  0.311782298526  0.000013656629
  0.151562500000  0.325746748130  0.325733091501  0.000013656629
  0.153906250000  0.339616010350  0.339602353721  0.000013656629
  0.156250000000  0.353403739387  0.353390082758  0.000013656629
  0.158593750000  0.367109932812  0.367096276183  0.000013656629
  0.160937500000  0.380734588198  0.380720931568  0.000013656629
  0.163281250000  0.394277703115  0.394264046486  0.000013656629
  0.165625000000  0.407739275136  0.407725618507  0.000013656629
  0.167968750000  0.421119301834  0.421105645205  0.000013656629
  0.170312500000  0.434417780780  0.434404124151  0.000013656629
  0.172656250000  0.447634709546  0.447621052917  0.000013656629
  0.175000000000  0.460770085706  0.460756429076  0.000013656629
  0.177343750000  0.473823906830  0.473810250201  0.000013656629
  0.179687500000  0.486796170492  0.486782513863  0.000013656629
  0.182031250000  0.499686874265  0.499673217636  0.000013656629
  0.184375000000  0.512496015721  0.512482359092  0.000013656629
  0.186718750000  0.525223592433  0.525209935804  0.000013656629
  0.189062500000  0.537869601975  0.537855945345  0.000013656629
  0.191406250000  0.550434041918  0.550420385288  0.000013656629
  0.193750000000  0.562916909836  0.562903253206  0.000013656629
  0.196093750000  0.575318203302  0.575304546673  0.000013656629
  0.198437500000  0.587637919890  0.587624263261  0.000013656629
  0.200781250000  0.599876057173  0.599862400544  0.000013656629
  0.203125000000  0.612032612725  0.612018956096  0.000013656629
  0.205468750000  0.624107584119  0.624093927489  0.000013656629
  0.207812500000  0.636100968928  0.636087312299  0.000013656629
  0.210156250000  0.648012764728  0.647999108098  0.000013656629
  0.212500000000  0.659842969091  0.659829312461  0.000013656629
  0.214843750000  0.671591579591  0.671577922962  0.000013656629
  0.217187500000  0.683258593803  0.683244937174  0.000013656629
  0.219531250000  0.694844009301  0.694830352672  0.000013656629
  0.221875000000  0.706347823660  0.706334167031  0.000013656629
  0.224218750000  0.717770034453  0.717756377824  0.000013656629
  0.226562500000  0.729110639255  0.729096982626  0.000013656629
  0.228906250000  0.740369635641  0.740355979012  0.000013656629
  0.231250000000  0.751547021186  0.751533364556  0.000013656629
  0.233593750000  0.762642793463  0.762629136834  0.000013656629
  0.235937500000  0.773656950049  0.773643293420  0.000013656629
  0.238281250000  0.784589488519  0.784575831889  0.000013656629
  0.240625000000  0.795440406446  0.795426749817  0.000013656629
  0.242968750000  0.806209701408  0.806196044779  0.000013656629
  0.245312500000  0.816897370978  0.816883714349  0.000013656629
  0.247656250000  0.827503412733  0.827489756104  0.000013656629
  0.250000000000  0.838027824248  0.838014167618  0.000013656629
  0.252343750000  0.848470603098  0.848456946469  0.000013656629
  0.254687500000  0.858831746860  0.858818090230  0.000013656629
  0.257031250000  0.869111253108  0.869097596479  0.000013656629
  0.259375000000  0.879309119421  0.879295462791  0.000013656629
  0.261718750000  0.889425343372  0.889411686743  0.000013656629
  0.264062500000  0.899459922539  0.899446265910  0.000013656629
  0.266406250000  0.909412854497  0.909399197868  0.000013656629
  0.268750000000  0.919284136824  0.919270480195  0.000013656629
  0.271093750000  0.929073767096  0.929060110466  0.000013656629
  0.273437500000  0.938781742888  0.938768086259  0.000013656629
  0.275781250000  0.948408061779  0.948394405150  0.000013656629
  0.278125000000  0.957952721344  0.957939064715  0.000013656629
  0.280468750000  0.967415719161  0.967402062532  0.000013656629
  0.282812500000  0.976797052807  0.976783396178  0.000013656629
  0.285156250000  0.986096719859  0.986083063230  0.000013656629
  0.287500000000  0.995314717894  0.995301061264  0.000013656629
  0.289843750000  1.004451044489  1.004437387860  0.000013656629
  0.292187500000  1.013505697222  1.013492040593  0.000013656629
  0.294531250000  1.022478673671  1.022465017042  0.000013656629
  0.296875000000  1.031369971414  1.031356314785  0.000013656629
  0.299218750000  1.040179588027  1.040165931398  0.000013656629
  0.301562500000  1.048907521090  1.048893864460  0.000013656629
  0.303906250000  1.057553768179  1.057540111550  0.000013656629
  0.306250000000  1.066118326874  1.066104670244  0.000013656629
  0.308593750000  1.074601194752  1.074587538123  0.000013656629
  0.310937500000  1.083002369392  1.082988712762  0.000013656629
  0.313281250000  1.091321848372  1.091308191743  0.000013656629
  0.315625000000  1.099559629271  1.099545972642  0.000013656629
  0.317968750000  1.107715709667  1.107702053038  0.000013656629
  0.320312500000  1.115790087140  1.115776430511  0.000013656629
  0.322656250000  1.123782759269  1.123769102639  0.000013656629
  0.325000000000  1.131693723631  1.131680067002  0.000013656629
  0.327343750000  1.139522977807  1.139509321178  0.000013656629
  0.329687500000  1.147270519376  1.147256862747  0.000013656629
  0.332031250000  1.154936345917  1.154922689288  0.000013656629
  0.334375000000  1.162520455010  1.162506798381  0.000013656629
  0.336718750000  1.170022844234  1.170009187605  0.000013656629
  0.339062500000  1.177443511169  1.177429854540  0.000013656629
  0.341406250000  1.184782453395  1.184768796766  0.000013656629
  0.343750000000  1.192039668492  1.192026011863  0.000013656629
  0.346093750000  1.199215154040  1.199201497410  0.000013656629
  0.348437500000  1.206308907618  1.206295250989  0.000013656629
  0.350781250000  1.213320926808  1.213307270179  0.000013656629
  0.353125000000  1.220251209190  1.220237552561  0.000013656629
  0.355468750000  1.227099752345  1.227086095715  0.000013656629
  0.357812500000  1.233866553852  1.233852897223  0.000013656629
  0.360156250000  1.240551611293  1.240537954664  0.000013656629
  0.362500000000  1.247154922249  1.247141265620  0.000013656629
  0.364843750000  1.253676484301  1.253662827671  0.000013656629
  0.367187500000  1.260116295029  1.260102638400  0.000013656629
  0.369531250000  1.266474352016  1.266460695387  0.000013656629
  0.371875000000  1.272750652842  1.272736996213  0.000013656629
  0.374218750000  1.278945195089  1.278931538460  0.000013656629
  0.376562500000  1.285057976339  1.285044319710  0.000013656629
  0.378906250000  1.291088994173  1.291075337544  0.000013656629
  0.381250000000  1.297038246173  1.297024589544  0.000013656629
  0.383593750000  1.302905729922  1.302892073293  0.000013656629
  0.385937500000  1.308691443001  1.308677786372  0.000013656629
  0.388281250000  1.314395382992  1.314381726363  0.000013656629
  0.390625000000  1.320017547478  1.320003890849  0.000013656629
  0.392968750000  1.325557934042  1.325544277413  0.000013656629
  0.395312500000  1.331016540265  1.331002883636  0.000013656629
  0.397656250000  1.336393363731  1.336379707102  0.000013656629
  0.400000000000  1.341688402023  1.341674745393  0.000013656629
  0.402343750000  1.346901652722  1.346887996093  0.000013656629
  0.404687500000  1.352033113414  1.352019456784  0.000013656629
  0.407031250000  1.357082781680  1.357069125050  0.000013656629
  0.409375000000  1.362050655103  1.362036998474  0.000013656629
  0.411718750000  1.366936731269  1.366923074640  0.000013656629
  0.414062500000  1.371741007759  1.371727351130  0.000013656629
  0.416406250000  1.376463482158  1.376449825529  0.000013656629
  0.418750000000  1.381104152050  1.381090495421  0.000013656629
  0.421093750000  1.385663015018  1.385649358389  0.000013656629
  0.423437500000  1.390140068647  1.390126412017  0.000013656629
  0.425781250000  1.394535310520  1.394521653891  0.000013656629
  0.428125000000  1.398848738223  1.398835081593  0.000013656629
  0.430468750000  1.403080349339  1.403066692709  0.000013656629
  0.432812500000  1.407230141453  1.407216484824  0.000013656629
  0.435156250000  1.411298112150  1.411284455521  0.000013656629
  0.437500000000  1.415284259014  1.415270602385  0.000013656629
  0.439843750000  1.419188579632  1.419174923002  0.000013656629
  0.442187500000  1.423011071587  1.422997414957  0.000013656629
  0.444531250000  1.426751732465  1.426738075835  0.000013656629
  0.446875000000  1.430410559851  1.430396903222  0.000013656629
  0.449218750000  1.433987551331  1.433973894702  0.000013656629
  0.451562500000  1.437482704490  1.437469047861  0.000013656629
  0.453906250000  1.440896016914  1.440882360285  0.000013656629
  0.456250000000  1.444227486190  1.444213829561  0.000013656629
  0.458593750000  1.447477109902  1.447463453273  0.000013656629
  0.460937500000  1.450644885637  1.450631229008  0.000013656629
  0.463281250000  1.453730810982  1.453717154353  0.000013656629
  0.465625000000  1.456734883523  1.456721226893  0.000013656629
  0.467968750000  1.459657100845  1.459643444216  0.000013656629
  0.470312500000  1.462497460537  1.462483803908  0.000013656629
  0.472656250000  1.465255960184  1.465242303555  0.000013656629
  0.475000000000  1.467932597374  1.467918940745  0.000013656629
  0.477343750000  1.470527369693  1.470513713064  0.000013656629
  0.479687500000  1.473040274729  1.473026618100  0.000013656629
  0.482031250000  1.475471310070  1.475457653440  0.000013656629
  0.484375000000  1.477820473301  1.477806816672  0.000013656629
  0.486718750000  1.480087762012  1.480074105383  0.000013656629
  0.489062500000  1.482273173790  1.482259517161  0.000013656629
  0.491406250000  1.484376706223  1.484363049593  0.000013656629
  0.493750000000  1.486398356898  1.486384700268  0.000013656629
  0.496093750000  1.488338123404  1.488324466774  0.000013656629
  0.498437500000  1.490196003328  1.490182346699  0.000013656629
  0.500781250000  1.491971994261  1.491958337631  0.000013656629
  0.503125000000  1.493666093789  1.493652437160  0.000013656629
  0.505468750000  1.495278299501  1.495264642872  0.000013656629
  0.507812500000  1.496808608988  1.496794952358  0.000013656629
  0.510156250000  1.498257019836  1.498243363207  0.000013656629
  0.512500000000  1.499623529635  1.499609873006  0.000013656629
  0.514843750000  1.500908135976  1.500894479347  0.000013656629
  0.517187500000  1.502110836446  1.502097179817  0.000013656629
  0.519531250000  1.503231628635  1.503217972006  0.000013656629
  0.521875000000  1.504270510133  1.504256853504  0.000013656629
  0.524218750000  1.505227478530  1.505213821901  0.000013656629
  0.526562500000  1.506102531416  1.506088874787  0.000013656629
  0.528906250000  1.506895666380  1.506882009751  0.000013656629
  0.531250000000  1.507606881013  1.507593224384  0.000013656629
  0.533593750000  1.508236172905  1.508222516276  0.000013656629
  0.535937500000  1.508783539647  1.508769883018  0.000013656629
  0.538281250000  1.509248978829  1.509235322199  0.000013656629
  0.540625000000  1.509632488041  1.509618831412  0.000013656629
  0.542968750000  1.509934064875  1.509920408246  0.000013656629
  0.545312500000  1.510153706922  1.510140050293  0.000013656629
  0.547656250000  1.510291411773  1.510277755144  0.000013656629
  0.550000000000  1.510347177019  1.510333520390  0.000013656629
  0.552343750000  1.510321000251  1.510307343622  0.000013656629
  0.554687500000  1.510212879061  1.510199222432  0.000013656629
  0.557031250000  1.510022811042  1.510009154413  0.000013656629
  0.559375000000  1.509750793784  1.509737137154  0.000013656629
  0.561718750000  1.509396824879  1.509383168250  0.000013656629
  0.564062500000  1.508960901920  1.508947245291  0.000013656629
  0.566406250000  1.508443022500  1.508429365871  0.000013656629
  0.568750000000  1.507843184210  1.507829527581  0.000013656629
  0.571093750000  1.507161384643  1.507147728014  0.000013656629
  0.573437500000  1.506397621391  1.506383964762  0.000013656629
  0.575781250000  1.505551892049  1.505538235420  0.000013656629
  0.578125000000  1.504624194208  1.504610537579  0.000013656629
  0.580468750000  1.503614525461  1.503600868832  0.000013656629
  0.582812500000  1.502522883403  1.502509226774  0.000013656629
  0.585156250000  1.501349265626  1.501335608997  0.000013656629
  0.587500000000  1.500093669725  1.500080013096  0.000013656629
  0.589843750000  1.498756093292  1.498742436663  0.000013656629
  0.592187500000  1.497336533922  1.497322877292  0.000013656629
  0.594531250000  1.495834989208  1.495821332579  0.000013656629
  0.596875000000  1.494251456745  1.494237800116  0.000013656629
  0.599218750000  1.492585934128  1.492572277498  0.000013656629
  0.601562500000  1.490838418950  1.490824762320  0.000013656629
  0.603906250000  1.489008908806  1.488995252177  0.000013656629
  0.606250000000  1.487097401291  1.487083744662  0.000013656629
  0.608593750000  1.485103894000  1.485090237371  0.000013656629
  0.610937500000  1.483028384528  1.483014727899  0.000013656629
  0.613281250000  1.480870870470  1.480857213841  0.000013656629
  0.615625000000  1.478631349422  1.478617692793  0.000013656629
  0.617968750000  1.476309818978  1.476296162349  0.000013656629
  0.620312500000  1.473906276735  1.473892620106  0.000013656629
  0.622656250000  1.471420720289  1.471407063660  0.000013656629
  0.625000000000  1.468853147235  1.468839490606  0.000013656629
  0.627343750000  1.466203555169  1.466189898540  0.000013656629
  0.629687500000  1.463471941688  1.463458285059  0.000013656629
  0.632031250000  1.460658304388  1.460644647759  0.000013656629
  0.634375000000  1.457762640866  1.457748984237  0.000013656629
  0.636718750000  1.454784948718  1.454771292089  0.000013656629
  0.639062500000  1.451725225541  1.451711568912  0.000013656629
  0.641406250000  1.448583468933  1.448569812303  0.000013656629
  0.643750000000  1.445359676489  1.445346019860  0.000013656629
  0.646093750000  1.442053845809  1.442040189180  0.000013656629
  0.648437500000  1.438665974489  1.438652317859  0.000013656629
  0.650781250000  1.435196060126  1.435182403497  0.000013656629
  0.653125000000  1.431644100319  1.431630443690  0.000013656629
  0.655468750000  1.428010092665  1.427996436036  0.000013656629
  0.657812500000  1.424294034763  1.424280378134  0.000013656629
  0.660156250000  1.420495924211  1.420482267581  0.000013656629
  0.662500000000  1.416615758606  1.416602101977  0.000013656629
  0.664843750000  1.412653535549  1.412639878919  0.000013656629
  0.667187500000  1.408609252636  1.408595596007  0.000013656629
  0.669531250000  1.404482907468  1.404469250839  0.000013656629
  0.671875000000  1.400274497644  1.400260841014  0.000013656629
  0.674218750000  1.395984020761  1.395970364132  0.000013656629
  0.676562500000  1.391611474420  1.391597817791  0.000013656629
  0.678906250000  1.387156856221  1.387143199592  0.000013656629
  0.681250000000  1.382620163762  1.382606507133  0.000013656629
  0.683593750000  1.378001394644  1.377987738015  0.000013656629
  0.685937500000  1.373300546467  1.373286889837  0.000013656629
  0.688281250000  1.368517616830  1.368503960200  0.000013656629
  0.690625000000  1.363652603334  1.363638946705  0.000013656629
  0.692968750000  1.358705503579  1.358691846950  0.000013656629
  0.695312500000  1.353676315166  1.353662658537  0.000013656629
  0.697656250000  1.348565035696  1.348551379067  0.000013656629
  0.700000000000  1.343371662770  1.343358006141  0.000013656629
  0.702343750000  1.338096193988  1.338082537359  0.000013656629
  0.704687500000  1.332738626952  1.332724970323  0.000013656629
  0.707031250000  1.327298959263  1.327285302634  0.000013656629
  0.709375000000  1.321777188523  1.321763531894  0.000013656629
  0.711718750000  1.316173312334  1.316159655705  0.000013656629
  0.714062500000  1.310487328297  1.310473671667  0.000013656629
  0.716406250000  1.304719234014  1.304705577384  0.000013656629
  0.718750000000  1.298869027087  1.298855370458  0.000013656629
  0.721093750000  1.292936705120  1.292923048490  0.000013656629
  0.723437500000  1.286922265713  1.286908609084  0.000013656629
  0.725781250000  1.280825706471  1.280812049842  0.000013656629
  0.728125000000  1.274647024996  1.274633368367  0.000013656629
  0.730468750000  1.268386218890  1.268372562261  0.000013656629
  0.732812500000  1.262043285758  1.262029629129  0.000013656629
  0.735156250000  1.255618223202  1.255604566572  0.000013656629
  0.737500000000  1.249111028825  1.249097372196  0.000013656629
  0.739843750000  1.242521700232  1.242508043603  0.000013656629
  0.742187500000  1.235850235027  1.235836578397  0.000013656629
  0.744531250000  1.229096630812  1.229082974183  0.000013656629
  0.746875000000  1.222260885193  1.222247228564  0.000013656629
  0.749218750000  1.215342995774  1.215329339144  0.000013656629
  0.751562500000  1.208342960158  1.208329303529  0.000013656629
  0.753906250000  1.201260775952  1.201247119323  0.000013656629
  0.756250000000  1.194096440759  1.194082784130  0.000013656629
  0.758593750000  1.186849952184  1.186836295555  0.000013656629
  0.760937500000  1.179521307834  1.179507651204  0.000013656629
  0.763281250000  1.172110505312  1.172096848683  0.000013656629
  0.765625000000  1.164617542225  1.164603885595  0.000013656629
  0.767968750000  1.157042416177  1.157028759548  0.000013656629
  0.770312500000  1.149385124776  1.149371468147  0.000013656629
  0.772656250000  1.141645665627  1.141632008997  0.000013656629
  0.775000000000  1.133824036335  1.133810379706  0.000013656629
  0.777343750000  1.125920234508  1.125906577879  0.000013656629
  0.779687500000  1.117934257751  1.117920601122  0.000013656629
  0.782031250000  1.109866103672  1.109852447043  0.000013656629
  0.784375000000  1.101715769877  1.101702113248  0.000013656629
  0.786718750000  1.093483253974  1.093469597345  0.000013656629
  0.789062500000  1.085168553569  1.085154896939  0.000013656629
  0.791406250000  1.076771666269  1.076758009640  0.000013656629
  0.793750000000  1.068292589683  1.068278933053  0.000013656629
  0.796093750000  1.059731321417  1.059717664788  0.000013656629
  0.798437500000  1.051087859080  1.051074202451  0.000013656629
  0.800781250000  1.042362200280  1.042348543651  0.000013656629
  0.803125000000  1.033554342624  1.033540685995  0.000013656629
  0.805468750000  1.024664283722  1.024650627093  0.000013656629
  0.807812500000  1.015692021182  1.015678364553  0.000013656629
  0.810156250000  1.006637552612  1.006623895983  0.000013656629
  0.812500000000  0.997500875621  0.997487218992  0.000013656629
  0.814843750000  0.988281987818  0.988268331189  0.000013656629
