radius      S_expected         S_actual            Error 
  0.100000000000  0.000000000000  0.000000000000  0.070721850433
  0.101234567901  0.003466923991  0.003474380239  0.000499925125
  0.102469135802  0.006559676610  0.006567130649  0.000995500503
  0.103703703704  0.009290661143  0.009298113029  0.001486840888
  0.104938271605  0.011671768601  0.011679218391  0.001973945485
  0.106172839506  0.013714404624  0.013721852375  0.002456824652
  0.107407407407  0.015429514681  0.015436960449  0.002935490662
  0.108641975309  0.016827607687  0.016835051529  0.003409956383
  0.109876543210  0.017918778161  0.017926220132  0.003880234947
  0.111111111111  0.018712727018  0.018720167174  0.004346339635
  0.112345679012  0.019218781107  0.019226219504  0.004808283832
  0.113580246914  0.019445911577  0.019453348271  0.005266081004
  0.114814814815  0.019402751151  0.019410186196  0.005719744683
  0.116049382716  0.019097610386  0.019105043836  0.006169288462
  0.117283950617  0.018538492992  0.018545924902  0.006614725985
  0.118518518519  0.017733110268  0.017740540692  0.007056070944
  0.119753086420  0.016688894719  0.016696323711  0.007493337075
  0.120987654321  0.015413012904  0.015420440516  0.007926538152
  0.122222222222  0.013912377570  0.013919803856  0.008355687984
  0.123456790123  0.012193659120  0.012201084131  0.008780800412
  0.124691358025  0.010263296443  0.010270720232  0.009201889303
  0.125925925926  0.008127507174  0.008134929793  0.009618968548
  0.127160493827  0.005792297393  0.005799718893  0.010032052059
  0.128395061728  0.003263470815  0.003270891245  0.010441153764
  0.129629629630  0.000546637493  0.000554056904  0.010846287604
  0.130864197531 -0.002352777927 -0.002345359486  0.011247467529
  0.132098765432 -0.005429528380 -0.005422110860  0.011644707495
  0.133333333333 -0.008678536955 -0.008671120307  0.012038021462
  0.134567901235 -0.012094889843 -0.012087474018  0.012427423388
  0.135802469136 -0.015673829638 -0.015666414591  0.012812927228
  0.137037037037 -0.019410748977 -0.019403334660  0.013194546930
  0.138271604938 -0.023301184484 -0.023293770850  0.013572296431
  0.139506172840 -0.027340811014 -0.027333398019  0.013946189657
  0.140740740741 -0.031525436181 -0.031518023778  0.014316240516
  0.141975308642 -0.035850995136 -0.035843583282  0.014682462900
  0.143209876543 -0.040313545607 -0.040306134258  0.015044870678
  0.144444444444 -0.044909263164 -0.044901852276  0.015403477698
  0.145679012346 -0.049634436709 -0.049627026240  0.015758297779
  0.146913580247 -0.054485464170 -0.054478054078  0.016109344713
  0.148148148148 -0.059458848405 -0.059451438649  0.016456632264
  0.149382716049 -0.064551193279 -0.064543783817  0.016800174161
  0.150617283951 -0.069759199924 -0.069751790718  0.017139984101
  0.151851851852 -0.075079663173 -0.075072254183  0.017476075743
  0.153086419753 -0.080509468142 -0.080502059328  0.017808462710
  0.154320987654 -0.086045586967 -0.086038178292  0.018137158587
  0.155555555556 -0.091685075690 -0.091677667117  0.018462176918
  0.156790123457 -0.097425071272 -0.097417662764  0.018783531206
  0.158024691358 -0.103262788736 -0.103255380257  0.019101234910
  0.159259259259 -0.109195518439 -0.109188109954  0.019415301448
  0.160493827160 -0.115220623451 -0.115213214925  0.019725744193
  0.161728395062 -0.121335537049 -0.121328128448  0.020032576474
  0.162962962963 -0.127537760320 -0.127530351611  0.020335811571
  0.164197530864 -0.133824859851 -0.133817451002  0.020635462723
  0.165432098765 -0.140194465528 -0.140187056506  0.020931543119
  0.166666666667 -0.146644268418 -0.146636859192  0.021224065903
  0.167901234568 -0.153172018734 -0.153164609275  0.021513044173
  0.169135802469 -0.159775523893 -0.159768114170  0.021798490980
  0.170370370370 -0.166452646639 -0.166445236622  0.022080419325
  0.171604938272 -0.173201303246 -0.173193892908  0.022358842168
  0.172839506173 -0.180019461797 -0.180012051110  0.022633772418
  0.174074074074 -0.186905140523 -0.186897729459  0.022905222941
  0.175308641975 -0.193856406206 -0.193848994739  0.023173206555
  0.176543209877 -0.200871372652 -0.200863960756  0.023437736035
  0.177777777778 -0.207948199214 -0.207940786864  0.023698824108
  0.179012345679 -0.215085089377 -0.215077676548  0.023956483461
  0.180246913580 -0.222280289391 -0.222272876060  0.024210726735
  0.181481481481 -0.229532086960 -0.229524673105  0.024461566528
  0.182716049383 -0.236838809982 -0.236831395578  0.024709015396
  0.183950617284 -0.244198825325 -0.244191410351  0.024953085856
  0.185185185185 -0.251610537660 -0.251603122095  0.025193790380
  0.186419753086 -0.259072388332 -0.259064972155  0.025431141405
  0.187654320988 -0.266582854269 -0.266575437459  0.025665151327
  0.188888888889 -0.274140446936 -0.274133029474  0.025895832504
  0.190123456790 -0.281743711322 -0.281736293189  0.026123197258
  0.191358024691 -0.289391224964 -0.289383806142  0.026347257874
  0.192592592593 -0.297081597010 -0.297074177482  0.026568026603
  0.193827160494 -0.304813467309 -0.304806047056  0.026785515662
  0.195061728395 -0.312585505533 -0.312578084539  0.026999737236
  0.196296296296 -0.320396410334 -0.320388988583  0.027210703476
  0.197530864198 -0.328244908530 -0.328237486006  0.027418426504
  0.198765432099 -0.336129754311 -0.336122330999  0.027622918411
  0.200000000000 -0.344049728481 -0.344042304367  0.027824191261
  0.201234567901 -0.352003637723 -0.351996212792  0.028022257088
  0.202469135802 -0.359990313886 -0.359982888124  0.028217127902
  0.203703703704 -0.368008613297 -0.368001186692  0.028408815686
  0.204938271605 -0.376057416101 -0.376049988639  0.028597332397
  0.206172839506 -0.384135625614 -0.384128197284  0.028782689971
  0.207407407407 -0.392242167705 -0.392234738494  0.028964900320
  0.208641975309 -0.400375990190 -0.400368560087  0.029143975336
  0.209876543210 -0.408536062258 -0.408528631252  0.029319926888
  0.211111111111 -0.416721373901 -0.416713941982  0.029492766827
  0.212345679012 -0.424930935374 -0.424923502531  0.029662506986
  0.213580246914 -0.433163776664 -0.433156342887  0.029829159179
  0.214814814815 -0.441418946983 -0.441411512263  0.029992735204
  0.216049382716 -0.449695514270 -0.449688078597  0.030153246843
  0.217283950617 -0.457992564713 -0.457985128079  0.030310705862
  0.218518518519 -0.466309202285 -0.466301764682  0.030465124015
  0.219753086420 -0.474644548296 -0.474637109714  0.030616513041
  0.220987654321 -0.482997740950 -0.482990301383  0.030764884667
  0.222222222222 -0.491367934932 -0.491360494372  0.030910250610
  0.223456790123 -0.499754300990 -0.499746859429  0.031052622572
  0.224691358025 -0.508156025543 -0.508148582974  0.031192012250
  0.225925925926 -0.516572310290 -0.516564866706  0.031328431328
  0.227160493827 -0.525002371840 -0.524994927236  0.031461891483
  0.228395061728 -0.533445441350 -0.533437995718  0.031592404384
  0.229629629630 -0.541900764168 -0.541893317502  0.031719981692
  0.230864197531 -0.550367599494 -0.550360151788  0.031844635062
  0.232098765432 -0.558845220049 -0.558837771297  0.031966376142
  0.233333333333 -0.567332911750 -0.567325461948  0.032085216576
  0.234567901235 -0.575829973400 -0.575822522541  0.032201168003
  0.235802469136 -0.584335716381 -0.584328264461  0.032314242057
  0.237037037037 -0.592849464362 -0.592842011375  0.032424450369
  0.238271604938 -0.601370553008 -0.601363098949  0.032531804565
  0.239506172840 -0.609898329706 -0.609890874570  0.032636316271
  0.240740740741 -0.618432153288 -0.618424697070  0.032737997108
  0.241975308642 -0.626971393774 -0.626963936470  0.032836858699
  0.243209876543 -0.635515432112 -0.635507973717  0.032932912661
  0.244444444444 -0.644063659930 -0.644056200439  0.033026170613
  0.245679012346 -0.652615479292 -0.652608018702  0.033116644174
  0.246913580247 -0.661170302467 -0.661162840772  0.033204344960
  0.248148148148 -0.669727551695 -0.669720088892  0.033289284591
  0.249382716049 -0.678286658968 -0.678279195051  0.033371474683
  0.250617283951 -0.686847065808 -0.686839600774  0.033450926856
  0.251851851852 -0.695408223061 -0.695400756906  0.033527652731
  0.253086419753 -0.703969590691 -0.703962123410  0.033601663930
  0.254320987654 -0.712530637576 -0.712523169166  0.033672972075
  0.255555555556 -0.721090841317 -0.721083371772  0.033741588794
  0.256790123457 -0.729649688047 -0.729642217364  0.033807525712
  0.258024691358 -0.738206672247 -0.738199200420  0.033870794461
  0.259259259259 -0.746761296563 -0.746753823589  0.033931406673
  0.260493827160 -0.755313071636 -0.755305597512  0.033989373985
  0.261728395062 -0.763861515929 -0.763854040649  0.034044708033
  0.262962962963 -0.772406155558 -0.772398679117  0.034097420461
  0.264197530864 -0.780946524132 -0.780939046528  0.034147522912
  0.265432098765 -0.789482162599 -0.789474683826  0.034195027037
  0.266666666667 -0.798012619084 -0.798005139137  0.034239944487
  0.267901234568 -0.806537448745 -0.806529967621  0.034282286917
  0.269135802469 -0.815056213625 -0.815048731318  0.034322065988
  0.270370370370 -0.823568482507 -0.823560999013  0.034359293362
  0.271604938272 -0.832073830781 -0.832066346095  0.034393980708
  0.272839506173 -0.840571840300 -0.840564354417  0.034426139697
  0.274074074074 -0.849062099254 -0.849054612169  0.034455782004
  0.275308641975 -0.857544202038 -0.857536713747  0.034482919310
  0.276543209877 -0.866017749128 -0.866010259625  0.034507563298
  0.277777777778 -0.874482346955 -0.874474856235  0.034529725656
  0.279012345679 -0.882937607788 -0.882930115847  0.034549418077
  0.280246913580 -0.891383149618 -0.891375656449  0.034566652258
  0.281481481481 -0.899818596037 -0.899811101636  0.034581439900
  0.282716049383 -0.908243576135 -0.908236080497  0.034593792707
  0.283950617284 -0.916657724387 -0.916650227505  0.034603722390
  0.285185185185 -0.925060680547 -0.925053182416  0.034611240661
  0.286419753086 -0.933452089543 -0.933444590158  0.034616359240
  0.287654320988 -0.941831601379 -0.941824100734  0.034619089848
  0.288888888889 -0.950198871034 -0.950191369124  0.034619444211
  0.290123456790 -0.958553558367 -0.958546055185  0.034617434060
  0.291358024691 -0.966895328021 -0.966887823561  0.034613071128
  0.292592592593 -0.975223849329 -0.975216343586  0.034606367156
  0.293827160494 -0.983538796230 -0.983531289198  0.034597333884
  0.295061728395 -0.991839847177 -0.991832338850  0.034585983059
  0.296296296296 -1.000126685052 -1.000119175423  0.034572326431
  0.297530864198 -1.008398997080 -1.008391486143  0.034556375754
  0.298765432099 -1.016656474752 -1.016648962502  0.034538142786
  0.300000000000 -1.024898813740 -1.024891300171  0.034517639286
  0.301234567901 -1.033125713823 -1.033118198928  0.034494877019
  0.302469135802 -1.041336878807 -1.041329362580  0.034469867754
  0.303703703704 -1.049532016453 -1.049524498888  0.034442623261
  0.304938271605 -1.057710838402 -1.057703319492  0.034413155315
  0.306172839506 -1.065873060104 -1.065865539843  0.034381475692
  0.307407407407 -1.074018400750 -1.074010879132  0.034347596174
  0.308641975309 -1.082146583202 -1.082139060221  0.034311528542
  0.309876543210 -1.090257333929 -1.090249809578  0.034273284584
  0.311111111111 -1.098350382936 -1.098342857210  0.034232876087
  0.312345679012 -1.106425463710 -1.106417936602  0.034190314843
  0.313580246914 -1.114482313146 -1.114474784650  0.034145612644
  0.314814814815 -1.122520671497 -1.122513141608  0.034098781288
  0.316049382716 -1.130540282308 -1.130532751018  0.034049832571
  0.317283950617 -1.138540892359 -1.138533359664  0.033998778293
  0.318518518519 -1.146522251611 -1.146514717504  0.033945630257
  0.319753086420 -1.154484113147 -1.154476577623  0.033890400265
  0.320987654321 -1.162426233119 -1.162418696171  0.033833100123
  0.322222222222 -1.170348370694 -1.170340832318  0.033773741637
  0.323456790123 -1.178250288005 -1.178242748194  0.033712336616
  0.324691358025 -1.186131750096 -1.186124208846  0.033648896868
  0.325925925926 -1.193992524876 -1.193984982181  0.033583434204
  0.327160493827 -1.201832383068 -1.201824838922  0.033515960436
  0.328395061728 -1.209651098161 -1.209643552561  0.033446487374
  0.329629629630 -1.217448446368 -1.217440899307  0.033375026832
  0.330864197531 -1.225224206574 -1.225216658049  0.033301590624
  0.332098765432 -1.232978160296 -1.232970610302  0.033226190562
  0.333333333333 -1.240710091640 -1.240702540172  0.033148838461
  0.334567901235 -1.248419787255 -1.248412234309  0.033069546135
  0.335802469136 -1.256107036293 -1.256099481866  0.032988325397
  0.337037037037 -1.263771630371 -1.263764074458  0.032905188061
  0.338271604938 -1.271413363526 -1.271405806123  0.032820145941
  0.339506172840 -1.279032032181 -1.279024473285  0.032733210850
  0.340740740741 -1.286627435103 -1.286619874711  0.032644394599
  0.341975308642 -1.294199373369 -1.294191811478  0.032553709001
  0.343209876543 -1.301747650328 -1.301740086935  0.032461165866
  0.344444444444 -1.309272071564 -1.309264506668  0.032366777004
  0.345679012346 -1.316772444866 -1.316764878463  0.032270554222
  0.346913580247 -1.324248580187 -1.324241012275  0.032172509328
  0.348148148148 -1.331700289615 -1.331692720193  0.032072654128
  0.349382716049 -1.339127387341 -1.339119816407  0.031971000425
  0.350617283951 -1.346529689624 -1.346522117177  0.031867560022
  0.351851851852 -1.353907014762 -1.353899440801  0.031762344718
  0.353086419753 -1.361259183060 -1.361251607586  0.031655366312
  0.354320987654 -1.368586016803 -1.368578439813  0.031546636600
  0.355555555556 -1.375887340222 -1.375879761717  0.031436167376
  0.356790123457 -1.383162979468 -1.383155399449  0.031323970429
  0.358024691358 -1.390412762586 -1.390405181052  0.031210057550
  0.359259259259 -1.397636519482 -1.397628936436  0.031094440523
  0.360493827160 -1.404834081904 -1.404826497346  0.030977131132
  0.361728395062 -1.412005283407 -1.411997697339  0.030858141156
  0.362962962963 -1.419149959334 -1.419142371757  0.030737482372
  0.364197530864 -1.426267946787 -1.426260357703  0.030615166554
  0.365432098765 -1.433359084604 -1.433351494017  0.030491205470
  0.366666666667 -1.440423213335 -1.440415621247  0.030365610888
  0.367901234568 -1.447460175217 -1.447452581631  0.030238394569
  0.369135802469 -1.454469814153 -1.454462219073  0.030109568274
  0.370370370370 -1.461451975686 -1.461444379116  0.029979143756
  0.371604938272 -1.468406506980 -1.468398908925  0.029847132766
  0.372839506173 -1.475333256799 -1.475325657262  0.029713547051
  0.374074074074 -1.482232075480 -1.482224474466  0.029578398353
  0.375308641975 -1.489102814918 -1.489095212434  0.029441698409
  0.376543209877 -1.495945328544 -1.495937724594  0.029303458952
  0.377777777778 -1.502759471303 -1.502751865894  0.029163691711
  0.379012345679 -1.509545099636 -1.509537492775  0.029022408410
  0.380246913580 -1.516302071463 -1.516294463155  0.028879620766
  0.381481481481 -1.523030246158 -1.523022636412  0.028735340494
  0.382716049383 -1.529729484538 -1.529721873360  0.028589579301
  0.383950617284 -1.536399648837 -1.536392036235  0.028442348890
  0.385185185185 -1.543040602696 -1.543032988678  0.028293660960
  0.386419753086 -1.549652211139 -1.549644595714  0.028143527201
  0.387654320988 -1.556234340562 -1.556226723739  0.027991959301
  0.388888888889 -1.562786858709 -1.562779240498  0.027838968939
  0.390123456790 -1.569309634664 -1.569302015073  0.027684567791
  0.391358024691 -1.575802538827 -1.575794917866  0.027528767525
  0.392592592593 -1.582265442902 -1.582257820583  0.027371579805
  0.393827160494 -1.588698219883 -1.588690596215  0.027213016286
  0.395061728395 -1.595100744035 -1.595093119028  0.027053088619
  0.396296296296 -1.601472890879 -1.601465264546  0.026891808447
  0.397530864198 -1.607814537183 -1.607806909535  0.026729187409
  0.398765432099 -1.614125560941 -1.614117931989  0.026565237135
  0.400000000000 -1.620405841359 -1.620398211116  0.026399969249
  0.401234567901 -1.626655258848 -1.626647627326  0.026233395369
  0.402469135802 -1.632873695000 -1.632866062213  0.026065527105
  0.403703703704 -1.639061032584 -1.639053398544  0.025896376062
  0.404938271605 -1.645217155527 -1.645209520246  0.025725953835
  0.406172839506 -1.651341948900 -1.651334312394  0.025554272015
  0.407407407407 -1.657435298912 -1.657427661193  0.025381342184
  0.408641975309 -1.663497092888 -1.663489453971  0.025207175918
  0.409876543210 -1.669527219264 -1.669519579163  0.025031784784
  0.411111111111 -1.675525567571 -1.675517926301  0.024855180342
  0.412345679012 -1.681492028423 -1.681484385999  0.024677374146
  0.413580246914 -1.687426493507 -1.687418849943  0.024498377741
  0.414814814815 -1.693328855569 -1.693321210881  0.024318202666
  0.416049382716 -1.699199008402 -1.699191362605  0.024136860450
  0.417283950617 -1.705036846838 -1.705029199948  0.023954362616
  0.418518518519 -1.710842266733 -1.710834618766  0.023770720678
  0.419753086420 -1.716615164957 -1.716607515929  0.023585946144
  0.420987654321 -1.722355439384 -1.722347789311  0.023400050511
  0.422222222222 -1.728062988879 -1.728055337779  0.023213045272
  0.423456790123 -1.733737713290 -1.733730061178  0.023024941909
  0.424691358025 -1.739379513435 -1.739371860327  0.022835751896
  0.425925925926 -1.744988291091 -1.744980637004  0.022645486700
  0.427160493827 -1.750563948986 -1.750556293938  0.022454157779
  0.428395061728 -1.756106390788 -1.756098734795  0.022261776584
  0.429629629630 -1.761615521093 -1.761607864174  0.022068354556
  0.430864197531 -1.767091245419 -1.767083587589  0.021873903130
  0.432098765432 -1.772533470189 -1.772525811466  0.021678433729
  0.433333333333 -1.777942102729 -1.777934443131  0.021481957771
  0.434567901235 -1.783317051253 -1.783309390797  0.021284486664
  0.435802469136 -1.788658224857 -1.788650563560  0.021086031808
  0.437037037037 -1.793965533503 -1.793957871384  0.020886604595
  0.438271604938 -1.799238888020 -1.799231225094  0.020686216406
  0.439506172840 -1.804478200083 -1.804470536370  0.020484878616
  0.440740740741 -1.809683382213 -1.809675717729  0.020282602590
  0.441975308642 -1.814854347762 -1.814846682525  0.020079399686
  0.443209876543 -1.819991010905 -1.819983344932  0.019875281252
  0.444444444444 -1.825093286634 -1.825085619944  0.019670258628
  0.445679012346 -1.830161090746 -1.830153423355  0.019464343143
  0.446913580247 -1.835194339833 -1.835186671758  0.019257546122
  0.448148148148 -1.840192951275 -1.840185282534  0.019049878876
  0.449382716049 -1.845156843234 -1.845149173844  0.018841352712
  0.450617283951 -1.850085934638 -1.850078264617  0.018631978924
  0.451851851852 -1.854980145180 -1.854972474544  0.018421768801
  0.453086419753 -1.859839395303 -1.859831724070  0.018210733621
  0.454320987654 -1.864663606197 -1.864655934382  0.017998884654
  0.455555555556 -1.869452699785 -1.869445027406  0.017786233161
  0.456790123457 -1.874206598719 -1.874198925792  0.017572790394
  0.458024691358 -1.878925226369 -1.878917552911  0.017358567597
  0.459259259259 -1.883608506818 -1.883600832845  0.017143576005
  0.460493827160 -1.888256364847 -1.888248690376  0.016927826844
  0.461728395062 -1.892868725936 -1.892861050981  0.016711331331
  0.462962962963 -1.897445516246 -1.897437840824  0.016494100675
  0.464197530864 -1.901986662618 -1.901978986745  0.016276146076
  0.465432098765 -1.906492092565 -1.906484416254  0.016057478725
  0.466666666667 -1.910961734256 -1.910954057525  0.015838109806
  0.467901234568 -1.915395516520 -1.915387839382  0.015618050491
  0.469135802469 -1.919793368826 -1.919785691296  0.015397311946
  0.470370370370 -1.924155221284 -1.924147543378  0.015175905328
  0.471604938272 -1.928481004635 -1.928473326366  0.014953841786
  0.472839506173 -1.932770650239 -1.932762971620  0.014731132458
  0.474074074074 -1.937024090073 -1.937016411119  0.014507788476
  0.475308641975 -1.941241256719 -1.941233577444  0.014283820962
  0.476543209877 -1.945422083361 -1.945414403778  0.014059241030
