radius      S_expected         S_actual            Error 
  0.200000000000  0.000000000000  0.000000000000  0.000000452190
  0.206722689076  0.003238660260  0.003238660604  0.000000460574
  0.213445378151  0.006217161812  0.006217161375  0.000000465288
  0.220168067227  0.008952055550  0.008952054995  0.000000465945
  0.226890756303  0.011458421369  0.011458420739  0.000000463909
  0.233613445378  0.013750050818  0.013750050146  0.000000460467
  0.240336134454  0.015839602445  0.015839601754  0.000000456368
  0.247058823529  0.017738734570  0.017738733878  0.000000451979
  0.253781512605  0.019458219278  0.019458218596  0.000000447465
  0.260504201681  0.021008040708  0.021008040045  0.000000442901
  0.267226890756  0.022397480140  0.022397479503  0.000000438316
  0.273949579832  0.023635189928  0.023635189319  0.000000433726
  0.280672268908  0.024729257952  0.024729257374  0.000000429135
  0.287394957983  0.025687264002  0.025687263456  0.000000424547
  0.294117647059  0.026516329231  0.026516328717  0.000000419963
  0.300840336134  0.027223159668  0.027223159187  0.000000415383
  0.307563025210  0.027814084589  0.027814084139  0.000000410808
  0.314285714286  0.028295090439  0.028295090020  0.000000406237
  0.321008403361  0.028671850888  0.028671850498  0.000000401673
  0.327731092437  0.028949753518  0.028949753155  0.000000397114
  0.334453781513  0.029133923557  0.029133923220  0.000000392560
  0.341176470588  0.029229245034  0.029229244722  0.000000388013
  0.347899159664  0.029240379663  0.029240379375  0.000000383472
  0.354621848739  0.029171783729  0.029171783462  0.000000378937
  0.361344537815  0.029027723205  0.029027722959  0.000000374409
  0.368067226891  0.028812287321  0.028812287095  0.000000369887
  0.374789915966  0.028529400749  0.028529400541  0.000000365373
  0.381512605042  0.028182834567  0.028182834375  0.000000360866
  0.388235294118  0.027776216145  0.027776215969  0.000000356368
  0.394957983193  0.027313038068  0.027313037906  0.000000351879
  0.401680672269  0.026796666214  0.026796666065  0.000000347402
  0.408403361345  0.026230347070  0.026230346935  0.000000342943
  0.415126050420  0.025617214389  0.025617214264  0.000000338515
  0.421848739496  0.024960295239  0.024960295126  0.000000334147
  0.428571428571  0.024262515547  0.024262515444  0.000000329904
  0.435294117647  0.023526705161  0.023526705067  0.000000325930
  0.442016806723  0.022755602509  0.022755602423  0.000000322531
  0.448739495798  0.021951858898  0.021951858820  0.000000320283
  0.455462184874  0.021118042490  0.021118042419  0.000000320035
  0.462184873950  0.020256641997  0.020256641933  0.000000322307
  0.468907563025  0.019370070133  0.019370070075  0.000000326023
  0.475630252101  0.018460666841  0.018460666790  0.000000328650
  0.482352941176  0.017530702345  0.017530702299  0.000000328641
  0.489075630252  0.016582380017  0.016582379975  0.000000326320
  0.495798319328  0.015617839111  0.015617839073  0.000000322624
  0.502521008403  0.014639157363  0.014639157329  0.000000318253
  0.509243697479  0.013648353480  0.013648353451  0.000000313580
  0.515966386555  0.012647389530  0.012647389504  0.000000308783
  0.522689075630  0.011638173235  0.011638173212  0.000000303940
  0.529411764706  0.010622560196  0.010622560176  0.000000299084
  0.536134453782  0.009602356034  0.009602356017  0.000000294230
  0.542857142857  0.008579318471  0.008579318456  0.000000289385
  0.549579831933  0.007555159343  0.007555159331  0.000000284552
  0.556302521008  0.006531546558  0.006531546548  0.000000279731
  0.563025210084  0.005510105990  0.005510105982  0.000000274924
  0.569747899160  0.004492423319  0.004492423313  0.000000270130
  0.576470588235  0.003480045813  0.003480045809  0.000000265351
  0.583193277311  0.002474484053  0.002474484050  0.000000260586
  0.589915966387  0.001477213594  0.001477213592  0.000000255836
  0.596638655462  0.000489676568  0.000489676568  0.000000251100
  0.603361344538 -0.000486716776 -0.000486716776  0.000000246379
  0.610084033613 -0.001450586604 -0.001450586603  0.000000241673
  0.616806722689 -0.002400582091 -0.002400582089  0.000000236983
  0.623529411765 -0.003335380092 -0.003335380089  0.000000232308
  0.630252100840 -0.004253683886 -0.004253683882  0.000000227648
  0.636974789916 -0.005154221998 -0.005154221993  0.000000223005
  0.643697478992 -0.006035747097 -0.006035747092  0.000000218378
  0.650420168067 -0.006897034982 -0.006897034976  0.000000213767
  0.657142857143 -0.007736883646 -0.007736883640  0.000000209173
  0.663865546218 -0.008554112426 -0.008554112419  0.000000204597
  0.670588235294 -0.009347561240 -0.009347561234  0.000000200040
  0.677310924370 -0.010116089910 -0.010116089903  0.000000195507
  0.684033613445 -0.010858577568 -0.010858577561  0.000000191005
  0.690756302521 -0.011573922147 -0.011573922140  0.000000186553
  0.697478991597 -0.012261039962 -0.012261039955  0.000000182193
  0.704201680672 -0.012918865364 -0.012918865357  0.000000178011
  0.710924369748 -0.013546350480 -0.013546350472  0.000000174185
  0.717647058824 -0.014142465021 -0.014142465013  0.000000171026
  0.724369747899 -0.014706196176 -0.014706196169  0.000000168906
  0.731092436975 -0.015236548560 -0.015236548552  0.000000167842
  0.737815126050 -0.015732544233 -0.015732544225  0.000000167000
  0.744537815126 -0.016193222778 -0.016193222771  0.000000165250
  0.751260504202 -0.016617641432 -0.016617641425  0.000000162244
  0.757983193277 -0.017004875258 -0.017004875251  0.000000158328
  0.764705882353 -0.017354017367 -0.017354017360  0.000000153928
  0.771428571429 -0.017664179170 -0.017664179162  0.000000149313
  0.778151260504 -0.017934490654 -0.017934490647  0.000000144614
  0.784873949580 -0.018164100688 -0.018164100681  0.000000139893
  0.791596638655 -0.018352177336 -0.018352177330  0.000000135174
  0.798319327731 -0.018497908178 -0.018497908172  0.000000130468
  0.805042016807 -0.018600500633 -0.018600500626  0.000000125782
  0.811764705882 -0.018659182273 -0.018659182267  0.000000121116
  0.818487394958 -0.018673201129 -0.018673201123  0.000000116473
  0.825210084034 -0.018641825972 -0.018641825966  0.000000111851
  0.831932773109 -0.018564346566 -0.018564346561  0.000000107252
  0.838655462185 -0.018440073903 -0.018440073897  0.000000102676
  0.845378151261 -0.018268340381 -0.018268340376  0.000000098122
  0.852100840336 -0.018048499960 -0.018048499955  0.000000093592
  0.858823529412 -0.017779928260 -0.017779928256  0.000000089084
  0.865546218487 -0.017462022612 -0.017462022607  0.000000084600
  0.872268907563 -0.017094202054 -0.017094202050  0.000000080140
  0.878991596639 -0.016675907278 -0.016675907274  0.000000075703
  0.885714285714 -0.016206600511 -0.016206600507  0.000000071290
  0.892436974790 -0.015685765335 -0.015685765332  0.000000066900
  0.899159663866 -0.015112906459 -0.015112906456  0.000000062534
  0.905882352941 -0.014487549414 -0.014487549410  0.000000058193
  0.912605042017 -0.013809240196 -0.013809240193  0.000000053876
  0.919327731092 -0.013077544851 -0.013077544848  0.000000049583
  0.926050420168 -0.012292048997 -0.012292048994  0.000000045314
  0.932773109244 -0.011452357292 -0.011452357290  0.000000041071
  0.939495798319 -0.010558092851 -0.010558092849  0.000000036852
  0.946218487395 -0.009608896609 -0.009608896607  0.000000032660
  0.952941176471 -0.008604426638 -0.008604426637  0.000000028494
  0.959663865546 -0.007544357430 -0.007544357429  0.000000024357
  0.966386554622 -0.006428379129 -0.006428379127  0.000000020252
  0.973109243697 -0.005256196740 -0.005256196739  0.000000016183
  0.979831932773 -0.004027529310 -0.004027529309  0.000000012151
  0.986554621849 -0.002742109080 -0.002742109079  0.000000008144
  0.993277310924 -0.001399680629 -0.001399680629  0.000000004120
  1.000000000000  0.000000000000  0.000000000000  0.000000000000
