radius      S_expected         S_actual            Error 
  0.000000000000  0.000000000000  0.000000000000  0.000000000000
  0.005208333333  0.031087239583  0.031087239583  0.000000000000
  0.010416666667  0.061848958333  0.061848958333  0.000000000000
  0.015625000000  0.092285156250  0.092285156250  0.000000000000
  0.020833333333  0.122395833333  0.122395833333  0.000000000000
  0.026041666667  0.152180989583  0.152180989583  0.000000000000
  0.031250000000  0.181640625000  0.181640625000  0.000000000000
  0.036458333333  0.210774739583  0.210774739583  0.000000000000
  0.041666666667  0.239583333333  0.239583333333  0.000000000000
  0.046875000000  0.268066406250  0.268066406250  0.000000000000
  0.052083333333  0.296223958333  0.296223958333  0.000000000000
  0.057291666667  0.324055989583  0.324055989583  0.000000000000
  0.062500000000  0.351562500000  0.351562500000  0.000000000000
  0.067708333333  0.378743489583  0.378743489583  0.000000000000
  0.072916666667  0.405598958333  0.405598958333  0.000000000000
  0.078125000000  0.432128906250  0.432128906250  0.000000000000
  0.083333333333  0.458333333333  0.458333333333  0.000000000000
  0.088541666667  0.484212239583  0.484212239583  0.000000000000
  0.093750000000  0.509765625000  0.509765625000  0.000000000000
  0.098958333333  0.534993489583  0.534993489583  0.000000000000
  0.104166666667  0.559895833333  0.559895833333  0.000000000000
  0.109375000000  0.584472656250  0.584472656250  0.000000000000
  0.114583333333  0.608723958333  0.608723958333  0.000000000000
  0.119791666667  0.632649739583  0.632649739583  0.000000000000
  0.125000000000  0.656250000000  0.656250000000  0.000000000000
  0.130208333333  0.679524739583  0.679524739583  0.000000000000
  0.135416666667  0.702473958333  0.702473958333  0.000000000000
  0.140625000000  0.725097656250  0.725097656250  0.000000000000
  0.145833333333  0.747395833333  0.747395833333  0.000000000000
  0.151041666667  0.769368489583  0.769368489583  0.000000000000
  0.156250000000  0.791015625000  0.791015625000  0.000000000000
  0.161458333333  0.812337239583  0.812337239583  0.000000000000
  0.166666666667  0.833333333333  0.833333333333  0.000000000000
  0.171875000000  0.854003906250  0.854003906250  0.000000000000
  0.177083333333  0.874348958333  0.874348958333  0.000000000000
  0.182291666667  0.894368489583  0.894368489583  0.000000000000
  0.187500000000  0.914062500000  0.914062500000  0.000000000000
  0.192708333333  0.933430989583  0.933430989583  0.000000000000
  0.197916666667  0.952473958333  0.952473958333  0.000000000000
  0.203125000000  0.971191406250  0.971191406250  0.000000000000
  0.208333333333  0.989583333333  0.989583333333  0.000000000000
  0.213541666667  1.007649739583  1.007649739583  0.000000000000
  0.218750000000  1.025390625000  1.025390625000  0.000000000000
  0.223958333333  1.042805989583  1.042805989583  0.000000000000
  0.229166666667  1.059895833333  1.059895833333  0.000000000000
  0.234375000000  1.076660156250  1.076660156250  0.000000000000
  0.239583333333  1.093098958333  1.093098958333  0.000000000000
  0.244791666667  1.109212239583  1.109212239583  0.000000000000
  0.250000000000  1.125000000000  1.125000000000  0.000000000000
  0.255208333333  1.140462239583  1.140462239583  0.000000000000
  0.260416666667  1.155598958333  1.155598958333  0.000000000000
  0.265625000000  1.170410156250  1.170410156250  0.000000000000
  0.270833333333  1.184895833333  1.184895833333  0.000000000000
  0.276041666667  1.199055989583  1.199055989583  0.000000000000
  0.281250000000  1.212890625000  1.212890625000  0.000000000000
  0.286458333333  1.226399739583  1.226399739583  0.000000000000
  0.291666666667  1.239583333333  1.239583333333  0.000000000000
  0.296875000000  1.252441406250  1.252441406250  0.000000000000
  0.302083333333  1.264973958333  1.264973958333  0.000000000000
  0.307291666667  1.277180989583  1.277180989583  0.000000000000
  0.312500000000  1.289062500000  1.289062500000  0.000000000000
  0.317708333333  1.300618489583  1.300618489583  0.000000000000
  0.322916666667  1.311848958333  1.311848958333  0.000000000000
  0.328125000000  1.322753906250  1.322753906250  0.000000000000
  0.333333333333  1.333333333333  1.333333333333  0.000000000000
  0.338541666667  1.343587239583  1.343587239583  0.000000000000
  0.343750000000  1.353515625000  1.353515625000  0.000000000000
  0.348958333333  1.363118489583  1.363118489583  0.000000000000
  0.354166666667  1.372395833333  1.372395833333  0.000000000000
  0.359375000000  1.381347656250  1.381347656250  0.000000000000
  0.364583333333  1.389973958333  1.389973958333  0.000000000000
  0.369791666667  1.398274739583  1.398274739583  0.000000000000
  0.375000000000  1.406250000000  1.406250000000  0.000000000000
  0.380208333333  1.413899739583  1.413899739583  0.000000000000
  0.385416666667  1.421223958333  1.421223958333  0.000000000000
  0.390625000000  1.428222656250  1.428222656250  0.000000000000
  0.395833333333  1.434895833333  1.434895833333  0.000000000000
  0.401041666667  1.441243489583  1.441243489583  0.000000000000
  0.406250000000  1.447265625000  1.447265625000  0.000000000000
  0.411458333333  1.452962239583  1.452962239583  0.000000000000
  0.416666666667  1.458333333333  1.458333333333  0.000000000000
  0.421875000000  1.463378906250  1.463378906250  0.000000000000
  0.427083333333  1.468098958333  1.468098958333  0.000000000000
  0.432291666667  1.472493489583  1.472493489583  0.000000000000
  0.437500000000  1.476562500000  1.476562500000  0.000000000000
  0.442708333333  1.480305989583  1.480305989583  0.000000000000
  0.447916666667  1.483723958333  1.483723958333  0.000000000000
  0.453125000000  1.486816406250  1.486816406250  0.000000000000
  0.458333333333  1.489583333333  1.489583333333  0.000000000000
  0.463541666667  1.492024739583  1.492024739583  0.000000000000
  0.468750000000  1.494140625000  1.494140625000  0.000000000000
  0.473958333333  1.495930989583  1.495930989583  0.000000000000
  0.479166666667  1.497395833333  1.497395833333  0.000000000000
  0.484375000000  1.498535156250  1.498535156250  0.000000000000
  0.489583333333  1.499348958333  1.499348958333  0.000000000000
  0.494791666667  1.499837239583  1.499837239583  0.000000000000
  0.500000000000  1.500000000000  1.500000000000  0.000000000000
  0.505208333333  1.499837239583  1.499837239583  0.000000000000
  0.510416666667  1.499348958333  1.499348958333  0.000000000000
  0.515625000000  1.498535156250  1.498535156250  0.000000000000
  0.520833333333  1.497395833333  1.497395833333  0.000000000000
  0.526041666667  1.495930989583  1.495930989583  0.000000000000
  0.531250000000  1.494140625000  1.494140625000  0.000000000000
  0.536458333333  1.492024739583  1.492024739583  0.000000000000
  0.541666666667  1.489583333333  1.489583333333  0.000000000000
  0.546875000000  1.486816406250  1.486816406250  0.000000000000
  0.552083333333  1.483723958333  1.483723958333  0.000000000000
  0.557291666667  1.480305989583  1.480305989583  0.000000000000
  0.562500000000  1.476562500000  1.476562500000  0.000000000000
  0.567708333333  1.472493489583  1.472493489583  0.000000000000
  0.572916666667  1.468098958333  1.468098958333  0.000000000000
  0.578125000000  1.463378906250  1.463378906250  0.000000000000
  0.583333333333  1.458333333333  1.458333333333  0.000000000000
  0.588541666667  1.452962239583  1.452962239583  0.000000000000
  0.593750000000  1.447265625000  1.447265625000  0.000000000000
  0.598958333333  1.441243489583  1.441243489583  0.000000000000
  0.604166666667  1.434895833333  1.434895833333  0.000000000000
  0.609375000000  1.428222656250  1.428222656250  0.000000000000
  0.614583333333  1.421223958333  1.421223958333  0.000000000000
  0.619791666667  1.413899739583  1.413899739583  0.000000000000
  0.625000000000  1.406250000000  1.406250000000  0.000000000000
  0.630208333333  1.398274739583  1.398274739583  0.000000000000
  0.635416666667  1.389973958333  1.389973958333  0.000000000000
  0.640625000000  1.381347656250  1.381347656250  0.000000000000
  0.645833333333  1.372395833333  1.372395833333  0.000000000000
  0.651041666667  1.363118489583  1.363118489583  0.000000000000
  0.656250000000  1.353515625000  1.353515625000  0.000000000000
  0.661458333333  1.343587239583  1.343587239583  0.000000000000
  0.666666666667  1.333333333333  1.333333333333  0.000000000000
  0.671875000000  1.322753906250  1.322753906250  0.000000000000
  0.677083333333  1.311848958333  1.311848958333  0.000000000000
  0.682291666667  1.300618489583  1.300618489583  0.000000000000
  0.687500000000  1.289062500000  1.289062500000  0.000000000000
  0.692708333333  1.277180989583  1.277180989583  0.000000000000
  0.697916666667  1.264973958333  1.264973958333  0.000000000000
  0.703125000000  1.252441406250  1.252441406250  0.000000000000
  0.708333333333  1.239583333333  1.239583333333  0.000000000000
  0.713541666667  1.226399739583  1.226399739583  0.000000000000
  0.718750000000  1.212890625000  1.212890625000  0.000000000000
  0.723958333333  1.199055989583  1.199055989583  0.000000000000
  0.729166666667  1.184895833333  1.184895833333  0.000000000000
  0.734375000000  1.170410156250  1.170410156250  0.000000000000
  0.739583333333  1.155598958333  1.155598958333  0.000000000000
  0.744791666667  1.140462239583  1.140462239583  0.000000000000
  0.750000000000  1.125000000000  1.125000000000  0.000000000000
  0.755208333333  1.109212239583  1.109212239583  0.000000000000
  0.760416666667  1.093098958333  1.093098958333  0.000000000000
  0.765625000000  1.076660156250  1.076660156250  0.000000000000
  0.770833333333  1.059895833333  1.059895833333  0.000000000000
  0.776041666667  1.042805989583  1.042805989583  0.000000000000
  0.781250000000  1.025390625000  1.025390625000  0.000000000000
  0.786458333333  1.007649739583  1.007649739583  0.000000000000
  0.791666666667  0.989583333333  0.989583333333  0.000000000000
  0.796875000000  0.971191406250  0.971191406250  0.000000000000
  0.802083333333  0.952473958333  0.952473958333  0.000000000000
  0.807291666667  0.933430989583  0.933430989583  0.000000000000
  0.812500000000  0.914062500000  0.914062500000  0.000000000000
  0.817708333333  0.894368489583  0.894368489583  0.000000000000
  0.822916666667  0.874348958333  0.874348958333  0.000000000000
  0.828125000000  0.854003906250  0.854003906250  0.000000000000
  0.833333333333  0.833333333333  0.833333333333  0.000000000000
  0.838541666667  0.812337239583  0.812337239583  0.000000000000
  0.843750000000  0.791015625000  0.791015625000  0.000000000000
  0.848958333333  0.769368489583  0.769368489583  0.000000000000
  0.854166666667  0.747395833333  0.747395833333  0.000000000000
  0.859375000000  0.725097656250  0.725097656250  0.000000000000
  0.864583333333  0.702473958333  0.702473958333  0.000000000000
  0.869791666667  0.679524739583  0.679524739583  0.000000000000
  0.875000000000  0.656250000000  0.656250000000  0.000000000000
  0.880208333333  0.632649739583  0.632649739583  0.000000000000
  0.885416666667  0.608723958333  0.608723958333  0.000000000000
  0.890625000000  0.584472656250  0.584472656250  0.000000000000
  0.895833333333  0.559895833333  0.559895833333  0.000000000000
  0.901041666667  0.534993489583  0.534993489583  0.000000000000
  0.906250000000  0.509765625000  0.509765625000  0.000000000000
  0.911458333333  0.484212239583  0.484212239583  0.000000000000
  0.916666666667  0.458333333333  0.458333333333  0.000000000000
  0.921875000000  0.432128906250  0.432128906250  0.000000000000
  0.927083333333  0.405598958333  0.405598958333  0.000000000000
  0.932291666667  0.378743489583  0.378743489583  0.000000000000
  0.937500000000  0.351562500000  0.351562500000  0.000000000000
  0.942708333333  0.324055989583  0.324055989583  0.000000000000
  0.947916666667  0.296223958333  0.296223958333  0.000000000000
  0.953125000000  0.268066406250  0.268066406250  0.000000000000
  0.958333333333  0.239583333333  0.239583333333  0.000000000000
  0.963541666667  0.210774739583  0.210774739583  0.000000000000
  0.968750000000  0.181640625000  0.181640625000  0.000000000000
  0.973958333333  0.152180989583  0.152180989583  0.000000000000
  0.979166666667  0.122395833333  0.122395833333  0.000000000000
  0.984375000000  0.092285156250  0.092285156250  0.000000000000
  0.989583333333  0.061848958333  0.061848958333  0.000000000000
  0.994791666667  0.031087239583  0.031087239583  0.000000000000
  1.000000000000  0.000000000000  0.000000000000  0.100000001490
