radius      S_expected         S_actual            Error 
  0.250000000000  0.031513920929  0.031513917481  5.679956908053
  0.255859375000  0.031494961987  0.031494962843  5.676932241801
  0.261718750000  0.031424770448  0.031424769881  5.673874931919
  0.267578125000  0.031305939364  0.031305938848  5.670753890938
  0.273437500000  0.031140928768  0.031140928297  5.667509809298
  0.279296875000  0.030932076757  0.030932076328  5.664030127947
  0.285156250000  0.030681609373  0.030681608981  5.660103308630
  0.291015625000  0.030391649432  0.030391649074  5.655339153813
  0.296875000000  0.030064224431  0.030064224104  5.649043395240
  0.302734375000  0.029701273646  0.029701273348  5.640064713451
  0.308593750000  0.029304654512  0.029304654239  5.626746587972
  0.314453125000  0.028876148376  0.028876148127  5.607358948395
  0.320312500000  0.028417465694  0.028417465467  5.581464788982
  0.326171875000  0.027930250732  0.027930250524  5.551617390479
  0.332031250000  0.027416085825  0.027416085635  5.522939993174
  0.337890625000  0.026876495255  0.026876495081  5.499854230686
  0.343750000000  0.026312948772  0.026312948613  5.483721006362
  0.349609375000  0.025726864811  0.025726864666  5.473644701891
  0.355468750000  0.025119613432  0.025119613300  5.468365432531
  0.361328125000  0.024492519012  0.024492518891  5.467445002090
  0.367187500000  0.023846862714  0.023846862604  5.471822316574
  0.373046875000  0.023183884761  0.023183884660  5.484270778749
  0.378906250000  0.022504786530  0.022504786438  5.509886772538
  0.384765625000  0.021810732490  0.021810732406  5.555943478036
  0.390625000000  0.021102851994  0.021102851918  5.629282567608
  0.396484375000  0.020382240943  0.020382240874  5.729652562015
  0.402343750000  0.019649963338  0.019649963275  5.843294473696
  0.408203125000  0.018907052722  0.018907052665  5.947692576275
  0.414062500000  0.018154513535  0.018154513483  6.026545941132
  0.419921875000  0.017393322382  0.017393322335  6.077346632892
  0.425781250000  0.016624429222  0.016624429180  6.106303588486
  0.431640625000  0.015848758498  0.015848758459  6.121104392457
  0.437500000000  0.015067210192  0.015067210157  6.127613613479
  0.443359375000  0.014280660834  0.014280660803  6.129525966443
  0.449218750000  0.013489964460  0.013489964432  6.128963671909
  0.455078125000  0.012695953513  0.012695953488  6.127089621584
  0.460937500000  0.011899439714  0.011899439692  6.124525265174
  0.466796875000  0.011101214892  0.011101214872  6.121597505000
  0.472656250000  0.010302051769  0.010302051751  6.118475137257
  0.478515625000  0.009502704725  0.009502704710  6.115241074045
  0.484375000000  0.008703910525  0.008703910512  6.111928268270
  0.490234375000  0.007906389020  0.007906389008  6.108534109134
  0.496093750000  0.007110843819  0.007110843809  6.105019433074
  0.501953125000  0.006317962939  0.006317962931  6.101292008655
  0.507812500000  0.005528419432  0.005528419425  6.097168543575
  0.513671875000  0.004742871982  0.004742871976  6.092303218879
  0.519531250000  0.003961965490  0.003961965485  6.086067598015
  0.525390625000  0.003186331629  0.003186331625  6.077382240288
  0.531250000000  0.002416589385  0.002416589383  6.064581372799
  0.537109375000  0.001653345574  0.001653345572  6.045612828179
  0.542968750000  0.000897195335  0.000897195334  6.019131883555
  0.548828125000  0.000148722615  0.000148722615  5.986507858618
  0.554687500000 -0.000591499377 -0.000591499377  5.952661493902
  0.560546875000 -0.001322907735 -0.001322907734  5.923351966811
  0.566406250000 -0.002044949430 -0.002044949428  5.901448379366
  0.572265625000 -0.002757080917 -0.002757080915  5.886442580092
  0.578125000000 -0.003458767755 -0.003458767752  5.876367117386
  0.583984375000 -0.004149484244 -0.004149484241  5.869341211812
  0.589843750000 -0.004828713092 -0.004828713088  5.864058519179
  0.595703125000 -0.005495945090 -0.005495945086  5.859731914713
  0.601562500000 -0.006150678814 -0.006150678810  5.855919996150
  0.607421875000 -0.006792420349 -0.006792420345  5.852385313893
  0.613281250000 -0.007420683024 -0.007420683020  5.849005073760
  0.619140625000 -0.008034987176 -0.008034987171  5.845721401740
  0.625000000000 -0.008634859927 -0.008634859922  5.842517069964
  0.630859375000 -0.009219834990 -0.009219834985  5.839408204489
  0.636718750000 -0.009789452480 -0.009789452475  5.836451331807
  0.642578125000 -0.010343258761 -0.010343258756  5.833767849452
  0.648437500000 -0.010880806295 -0.010880806290  5.831596087767
  0.654296875000 -0.011401653525 -0.011401653520  5.830391609326
  0.660156250000 -0.011905364765 -0.011905364759  5.831011860206
  0.666015625000 -0.012391510112 -0.012391510107  5.835038426928
  0.671875000000 -0.012859665376 -0.012859665371  5.845284171324
  0.677734375000 -0.013309412024 -0.013309412019  5.866411163528
  0.683593750000 -0.013740337141 -0.013740337136  5.905123238267
  0.689453125000 -0.014152033405 -0.014152033400  5.968417892300
  0.695312500000 -0.014544099077 -0.014544099071  6.058065523795
  0.701171875000 -0.014916138004 -0.014916137999  6.163778882877
  0.707031250000 -0.015267759636 -0.015267759631  6.264980915401
  0.712890625000 -0.015598579052 -0.015598579047  6.344117063325
  0.718750000000 -0.015908216998 -0.015908216993  6.396301147795
  0.724609375000 -0.016196299931 -0.016196299926  6.426279932297
  0.730468750000 -0.016462460082 -0.016462460077  6.441230556174
  0.736328125000 -0.016706335510 -0.016706335505  6.446798603792
  0.742187500000 -0.016927570178 -0.016927570173  6.446279794186
  0.748046875000 -0.017125814024 -0.017125814020  6.440936809717
  0.753906250000 -0.017300723043 -0.017300723038  6.430414259501
  0.759765625000 -0.017451959361 -0.017451959357  6.413180409430
  0.765625000000 -0.017579191329 -0.017579191325  6.387535720707
  0.771484375000 -0.017682093598 -0.017682093594  6.353712825281
  0.777343750000 -0.017760347206 -0.017760347202  6.315847763525
  0.783203125000 -0.017813639662 -0.017813639658  6.280627316759
  0.789062500000 -0.017841665022 -0.017841665018  6.252894749932
  0.794921875000 -0.017844123968 -0.017844123964  6.233416193013
  0.800781250000 -0.017820723878 -0.017820723874  6.220376027324
  0.806640625000 -0.017771178893 -0.017771178889  6.211514058283
  0.812500000000 -0.017695209977 -0.017695209973  6.205103082602
  0.818359375000 -0.017592544968 -0.017592544965  6.200053843110
  0.824218750000 -0.017462918625 -0.017462918622  6.195740159917
  0.830078125000 -0.017306072661 -0.017306072658  6.191818586397
  0.835937500000 -0.017121755773 -0.017121755770  6.188105262929
  0.841796875000 -0.016909723654 -0.016909723651  6.184502997189
  0.847656250000 -0.016669739003 -0.016669739000  6.180960751400
  0.853515625000 -0.016401571516 -0.016401571514  6.177451822006
  0.859375000000 -0.016104997873 -0.016104997871  6.173962270466
  0.865234375000 -0.015779801707 -0.015779801705  6.170484840013
  0.871093750000 -0.015425773564 -0.015425773561  6.167015773709
  0.876953125000 -0.015042710850 -0.015042710848  6.163553160285
  0.882812500000 -0.014630417769 -0.014630417767  6.160096087915
  0.888671875000 -0.014188705241 -0.014188705239  6.156644236130
  0.894531250000 -0.013717390819 -0.013717390817  6.153197727106
  0.900390625000 -0.013216298579 -0.013216298577  6.149757171058
  0.906250000000 -0.012685259014 -0.012685259013  6.146323925487
  0.912109375000 -0.012124108907 -0.012124108906  6.142900681588
  0.917968750000 -0.011532691194 -0.011532691192  6.139492634116
  0.923828125000 -0.010910854814 -0.010910854813  6.136109745231
  0.929687500000 -0.010258454559 -0.010258454558  6.132771087398
  0.935546875000 -0.009575350900 -0.009575350899  6.129513144151
  0.941406250000 -0.008861409814 -0.008861409813  6.126405619751
  0.947265625000 -0.008116502597 -0.008116502596  6.123581374656
  0.953125000000 -0.007340505673 -0.007340505672  6.121292482712
  0.958984375000 -0.006533300393 -0.006533300392  6.120012949976
  0.964843750000 -0.005694772828 -0.005694772828  6.120618901129
  0.970703125000 -0.004824813559 -0.004824813559  6.124676723968
  0.976562500000 -0.003923317458 -0.003923317458  6.134810853386
  0.982421875000 -0.002990183470 -0.002990183470  6.154881303248
  0.988281250000 -0.002025314388 -0.002025314388  6.189146057833
  0.994140625000 -0.001028616627 -0.001028616627  6.239249751683
  1.000000000000 -0.000000000000 -0.000000000000  6.300000000000
