radius      S_expected         S_actual            Error 
  0.100000000000  0.000000000000  0.000000000000  0.070721850433
  0.100439453125  0.001277766928  0.001278711859  0.000178424429
  0.100878906250  0.002507081279  0.002508026108  0.000356303469
  0.101318359375  0.003688525863  0.003689470590  0.000533642289
  0.101757812500  0.004822674668  0.004823619295  0.000710440847
  0.102197265625  0.005910093034  0.005911037562  0.000886699602
  0.102636718750  0.006951337821  0.006952282250  0.001062419099
  0.103076171875  0.007946957567  0.007947901899  0.001237599907
  0.103515625000  0.008897492653  0.008898436888  0.001412242604
  0.103955078125  0.009803475456  0.009804419595  0.001586347776
  0.104394531250  0.010665430498  0.010666374542  0.001759916011
  0.104833984375  0.011483874600  0.011484818550  0.001932947897
  0.105273437500  0.012259317022  0.012260260880  0.002105444026
  0.105712890625  0.012992259609  0.012993203375  0.002277404992
  0.106152343750  0.013683196926  0.013684140600  0.002448831388
  0.106591796875  0.014332616395  0.014333559979  0.002619723812
  0.107031250000  0.014940998426  0.014941941921  0.002790082858
  0.107470703125  0.015508816547  0.015509759954  0.002959909127
  0.107910156250  0.016036537533  0.016037480851  0.003129203216
  0.108349609375  0.016524621523  0.016525564755  0.003297965725
  0.108789062500  0.016973522148  0.016974465294  0.003466197257
  0.109228515625  0.017383686643  0.017384629704  0.003633898414
  0.109667968750  0.017755555968  0.017756498945  0.003801069799
  0.110107421875  0.018089564916  0.018090507810  0.003967712015
  0.110546875000  0.018386142228  0.018387085040  0.004133825670
  0.110986328125  0.018645710698  0.018646653429  0.004299411368
  0.111425781250  0.018868687278  0.018869629928  0.004464469717
  0.111865234375  0.019055483185  0.019056425756  0.004629001325
  0.112304687500  0.019206504000  0.019207446492  0.004793006801
  0.112744140625  0.019322149767  0.019323092181  0.004956486756
  0.113183593750  0.019402815090  0.019403757428  0.005119441799
  0.113623046875  0.019448889228  0.019449831490  0.005281872543
  0.114062500000  0.019460756189  0.019461698376  0.005443779599
  0.114501953125  0.019438794819  0.019439736932  0.005605163582
  0.114941406250  0.019383378892  0.019384320931  0.005766025105
  0.115380859375  0.019294877198  0.019295819164  0.005926364783
  0.115820312500  0.019173653624  0.019174595519  0.006086183231
  0.116259765625  0.019020067244  0.019021009068  0.006245481067
  0.116699218750  0.018834472397  0.018835414151  0.006404258906
  0.117138671875  0.018617218766  0.018618160452  0.006562517367
  0.117578125000  0.018368651460  0.018369593078  0.006720257068
  0.118017578125  0.018089111088  0.018090052638  0.006877478629
  0.118457031250  0.017778933835  0.017779875319  0.007034182668
  0.118896484375  0.017438451536  0.017439392954  0.007190369806
  0.119335937500  0.017067991748  0.017068933102  0.007346040664
  0.119775390625  0.016667877821  0.016668819111  0.007501195863
  0.120214843750  0.016238428968  0.016239370195  0.007655836027
  0.120654296875  0.015779960332  0.015780901496  0.007809961776
  0.121093750000  0.015292783050  0.015293724154  0.007963573734
  0.121533203125  0.014777204326  0.014778145370  0.008116672526
  0.121972656250  0.014233527487  0.014234468471  0.008269258774
  0.122412109375  0.013662052049  0.013662992974  0.008421333104
  0.122851562500  0.013063073779  0.013064014646  0.008572896140
  0.123291015625  0.012436884754  0.012437825564  0.008723948509
  0.123730468750  0.011783773421  0.011784714175  0.008874490835
  0.124169921875  0.011104024655  0.011104965353  0.009024523745
  0.124609375000  0.010397919814  0.010398860458  0.009174047865
  0.125048828125  0.009665736797  0.009666677388  0.009323063823
  0.125488281250  0.008907750099  0.008908690636  0.009471572245
  0.125927734375  0.008124230861  0.008125171347  0.009619573759
  0.126367187500  0.007315446927  0.007316387361  0.009767068993
  0.126806640625  0.006481662892  0.006482603276  0.009914058575
  0.127246093750  0.005623140156  0.005624080490  0.010060543133
  0.127685546875  0.004740136968  0.004741077254  0.010206523296
  0.128125000000  0.003832908483  0.003833848721  0.010351999692
  0.128564453125  0.002901706802  0.002902646993  0.010496972950
  0.129003906250  0.001946781024  0.001947721168  0.010641443700
  0.129443359375  0.000968377288  0.000969317386  0.010785412570
  0.129882812500 -0.000033261179 -0.000032321126  0.010928880190
  0.130322265625 -0.001057894017 -0.001056954008  0.011071847189
  0.130761718750 -0.002105283693 -0.002104343727  0.011214314196
  0.131201171875 -0.003175195457 -0.003174255533  0.011356281842
  0.131640625000 -0.004267397296 -0.004266457413  0.011497750756
  0.132080078125 -0.005381659899 -0.005380720058  0.011638721567
  0.132519531250 -0.006517756614 -0.006516816813  0.011779194905
  0.132958984375 -0.007675463408 -0.007674523647  0.011919171400
  0.133398437500 -0.008854558828 -0.008853619105  0.012058651682
  0.133837890625 -0.010054823964 -0.010053884278  0.012197636379
  0.134277343750 -0.011276042409 -0.011275102760  0.012336126121
  0.134716796875 -0.012518000225 -0.012517060612  0.012474121539
  0.135156250000 -0.013780485906 -0.013779546329  0.012611623260
  0.135595703125 -0.015063290341 -0.015062350799  0.012748631914
  0.136035156250 -0.016366206782 -0.016365267274  0.012885148131
  0.136474609375 -0.017689030806 -0.017688091331  0.013021172539
  0.136914062500 -0.019031560283 -0.019030620840  0.013156705767
  0.137353515625 -0.020393595345 -0.020392655933  0.013291748443
  0.137792968750 -0.021774938349 -0.021773998969  0.013426301196
  0.138232421875 -0.023175393851 -0.023174454501  0.013560364654
  0.138671875000 -0.024594768568 -0.024593829248  0.013693939445
  0.139111328125 -0.026032871352 -0.026031932061  0.013827026196
  0.139550781250 -0.027489513158 -0.027488573894  0.013959625534
  0.139990234375 -0.028964507014 -0.028963567777  0.014091738088
  0.140429687500 -0.030457667992 -0.030456728782  0.014223364483
  0.140869140625 -0.031968813179 -0.031967873996  0.014354505346
  0.141308593750 -0.033497761651 -0.033496822492  0.014485161303
  0.141748046875 -0.035044334441 -0.035043395306  0.014615332981
  0.142187500000 -0.036608354513 -0.036607415403  0.014745021004
  0.142626953125 -0.038189646740 -0.038188707653  0.014874225997
  0.143066406250 -0.039788037870 -0.039787098805  0.015002948585
  0.143505859375 -0.041403356506 -0.041402417463  0.015131189393
  0.143945312500 -0.043035433076 -0.043034494054  0.015258949044
  0.144384765625 -0.044684099812 -0.044683160810  0.015386228162
  0.144824218750 -0.046349190724 -0.046348251741  0.015513027370
  0.145263671875 -0.048030541571 -0.048029602608  0.015639347290
  0.145703125000 -0.049727989847 -0.049727050902  0.015765188545
  0.146142578125 -0.051441374749 -0.051440435821  0.015890551755
  0.146582031250 -0.053170537155 -0.053169598244  0.016015437543
  0.147021484375 -0.054915319607 -0.054914380713  0.016139846529
  0.147460937500 -0.056675566283 -0.056674627404  0.016263779333
  0.147900390625 -0.058451122976 -0.058450184111  0.016387236574
  0.148339843750 -0.060241837074 -0.060240898223  0.016510218872
  0.148779296875 -0.062047557538 -0.062046618701  0.016632726845
  0.149218750000 -0.063868134881 -0.063867196058  0.016754761112
  0.149658203125 -0.065703421149 -0.065702482338  0.016876322289
  0.150097656250 -0.067553269897 -0.067552331098  0.016997410994
  0.150537109375 -0.069417536173 -0.069416597385  0.017118027842
  0.150976562500 -0.071296076496 -0.071295137718  0.017238173450
  0.151416015625 -0.073188748839 -0.073187810070  0.017357848433
  0.151855468750 -0.075095412605 -0.075094473847  0.017477053404
  0.152294921875 -0.077015928617 -0.077014989867  0.017595788979
  0.152734375000 -0.078950159091 -0.078949220348  0.017714055769
  0.153173828125 -0.080897967623 -0.080897028888  0.017831854389
  0.153613281250 -0.082859219169 -0.082858280441  0.017949185449
  0.154052734375 -0.084833780029 -0.084832841307  0.018066049562
  0.154492187500 -0.086821517828 -0.086820579111  0.018182447337
  0.154931640625 -0.088822301501 -0.088821362788  0.018298379385
  0.155371093750 -0.090836001275 -0.090835062567  0.018413846315
  0.155810546875 -0.092862488652 -0.092861549948  0.018528848736
  0.156250000000 -0.094901636396 -0.094900697695  0.018643387255
  0.156689453125 -0.096953318512 -0.096952379813  0.018757462481
  0.157128906250 -0.099017410234 -0.099016471538  0.018871075020
  0.157568359375 -0.101093788011 -0.101092849316  0.018984225477
  0.158007812500 -0.103182329485 -0.103181390791  0.019096914458
  0.158447265625 -0.105282913484 -0.105281974790  0.019209142568
  0.158886718750 -0.107395420003 -0.107394481308  0.019320910410
  0.159326171875 -0.109519730188 -0.109518791493  0.019432218587
  0.159765625000 -0.111655726327 -0.111654787631  0.019543067703
  0.160205078125 -0.113803291831 -0.113802353132  0.019653458357
  0.160644531250 -0.115962311221 -0.115961372520  0.019763391152
  0.161083984375 -0.118132670118 -0.118131731413  0.019872866688
  0.161523437500 -0.120314255223 -0.120313316516  0.019981885563
  0.161962890625 -0.122506954312 -0.122506015600  0.020090448378
  0.162402343750 -0.124710656214 -0.124709717498  0.020198555729
  0.162841796875 -0.126925250806 -0.126924312085  0.020306208215
  0.163281250000 -0.129150628995 -0.129149690268  0.020413406431
  0.163720703125 -0.131386682708 -0.131385743974  0.020520150973
  0.164160156250 -0.133633304878 -0.133632366137  0.020626442437
  0.164599609375 -0.135890389434 -0.135889450687  0.020732281417
  0.165039062500 -0.138157831290 -0.138156892534  0.020837668506
  0.165478515625 -0.140435526326 -0.140434587562  0.020942604298
  0.165917968750 -0.142723371387 -0.142722432614  0.021047089383
  0.166357421875 -0.145021264263 -0.145020325481  0.021151124354
  0.166796875000 -0.147329103682 -0.147328164891  0.021254709801
  0.167236328125 -0.149646789299 -0.149645850497  0.021357846314
  0.167675781250 -0.151974221680 -0.151973282868  0.021460534482
  0.168115234375 -0.154311302300 -0.154310363476  0.021562774893
  0.168554687500 -0.156657933524 -0.156656994689  0.021664568135
  0.168994140625 -0.159014018603 -0.159013079755  0.021765914795
  0.169433593750 -0.161379461656 -0.161378522796  0.021866815458
  0.169873046875 -0.163754167670 -0.163753228796  0.021967270710
  0.170312500000 -0.166138042481 -0.166137103594  0.022067281135
  0.170751953125 -0.168530992768 -0.168530053867  0.022166847318
  0.171191406250 -0.170932926044 -0.170931987128  0.022265969842
  0.171630859375 -0.173343750644 -0.173342811714  0.022364649288
  0.172070312500 -0.175763375718 -0.175762436772  0.022462886238
  0.172509765625 -0.178191711219 -0.178190772257  0.022560681273
  0.172949218750 -0.180628667895 -0.180627728917  0.022658034974
  0.173388671875 -0.183074157283 -0.183073218288  0.022754947919
  0.173828125000 -0.185528091693 -0.185527152681  0.022851420688
  0.174267578125 -0.187990384206 -0.187989445176  0.022947453858
  0.174707031250 -0.190460948662 -0.190460009614  0.023043048006
  0.175146484375 -0.192939699652 -0.192938760586  0.023138203709
  0.175585937500 -0.195426552509 -0.195425613424  0.023232921542
  0.176025390625 -0.197921423301 -0.197920484197  0.023327202081
  0.176464843750 -0.200424228821 -0.200423289697  0.023421045900
  0.176904296875 -0.202934886581 -0.202933947437  0.023514453572
  0.177343750000 -0.205453314801 -0.205452375637  0.023607425671
  0.177783203125 -0.207979432405 -0.207978493220  0.023699962768
  0.178222656250 -0.210513159009 -0.210512219803  0.023792065435
  0.178662109375 -0.213054414918 -0.213053475690  0.023883734242
  0.179101562500 -0.215603121112 -0.215602181862  0.023974969761
  0.179541015625 -0.218159199246 -0.218158259974  0.024065772560
  0.179980468750 -0.220722571637 -0.220721632342  0.024156143207
  0.180419921875 -0.223293161258 -0.223292221940  0.024246082271
  0.180859375000 -0.225870891734 -0.225869952393  0.024335590320
  0.181298828125 -0.228455687330 -0.228454747964  0.024424667919
  0.181738281250 -0.231047472947 -0.231046533557  0.024513315635
  0.182177734375 -0.233646174114 -0.233645234700  0.024601534033
  0.182617187500 -0.236251716984 -0.236250777544  0.024689323679
  0.183056640625 -0.238864028321 -0.238863088856  0.024776685134
  0.183496093750 -0.241483035501 -0.241482096010  0.024863618965
  0.183935546875 -0.244108666498 -0.244107726982  0.024950125732
  0.184375000000 -0.246740849886 -0.246739910343  0.025036205997
  0.184814453125 -0.249379514822 -0.249378575253  0.025121860324
  0.185253906250 -0.252024591052 -0.252023651455  0.025207089271
  0.185693359375 -0.254676008892 -0.254675069268  0.025291893400
  0.186132812500 -0.257333699234 -0.257332759582  0.025376273270
  0.186572265625 -0.259997593530 -0.259996653850  0.025460229439
  0.187011718750 -0.262667623792 -0.262666684084  0.025543762467
  0.187451171875 -0.265343722584 -0.265342782848  0.025626872910
  0.187890625000 -0.268025823017 -0.268024883252  0.025709561327
  0.188330078125 -0.270713858742 -0.270712918947  0.025791828273
  0.188769531250 -0.273407763945 -0.273406824121  0.025873674304
  0.189208984375 -0.276107473343 -0.276106533489  0.025955099976
  0.189648437500 -0.278812922176 -0.278811982291  0.026036105844
  0.190087890625 -0.281524046201 -0.281523106286  0.026116692462
  0.190527343750 -0.284240781690 -0.284239841744  0.026196860383
  0.190966796875 -0.286963065423 -0.286962125446  0.026276610160
  0.191406250000 -0.289690834681 -0.289689894672  0.026355942346
  0.191845703125 -0.292424027243 -0.292423087203  0.026434857494
  0.192285156250 -0.295162581382 -0.295161641310  0.026513356154
  0.192724609375 -0.297906435855 -0.297905495751  0.026591438877
  0.193164062500 -0.300655529904 -0.300654589768  0.026669106213
  0.193603515625 -0.303409803247 -0.303408863078  0.026746358714
  0.194042968750 -0.306169196074 -0.306168255872  0.026823196927
  0.194482421875 -0.308933649044 -0.308932708808  0.026899621401
  0.194921875000 -0.311703103277 -0.311702163008  0.026975632686
  0.195361328125 -0.314477500353 -0.314476560050  0.027051231328
  0.195800781250 -0.317256782304 -0.317255841967  0.027126417875
  0.196240234375 -0.320040891612 -0.320039951241  0.027201192873
  0.196679687500 -0.322829771204 -0.322828830798  0.027275556870
  0.197119140625 -0.325623364445 -0.325622424004  0.027349510411
  0.197558593750 -0.328421615137 -0.328420674661  0.027423054041
  0.197998046875 -0.331224467513 -0.331223527002  0.027496188305
  0.198437500000 -0.334031866233 -0.334030925686  0.027568913748
  0.198876953125 -0.336843756379 -0.336842815796  0.027641230913
  0.199316406250 -0.339660083453 -0.339659142834  0.027713140345
  0.199755859375 -0.342480793369 -0.342479852714  0.027784642585
  0.200195312500 -0.345305832454 -0.345304891762  0.027855738178
  0.200634765625 -0.348135147439 -0.348134206710  0.027926427664
  0.201074218750 -0.350968685458 -0.350967744693  0.027996711587
  0.201513671875 -0.353806394044 -0.353805453241  0.028066590487
  0.201953125000 -0.356648221123 -0.356647280283  0.028136064904
  0.202392578125 -0.359494115012 -0.359493174134  0.028205135381
  0.202832031250 -0.362344024415 -0.362343083500  0.028273802457
  0.203271484375 -0.365197898420 -0.365196957466  0.028342066671
  0.203710937500 -0.368055686491 -0.368054745500  0.028409928564
  0.204150390625 -0.370917338471 -0.370916397441  0.028477388673
  0.204589843750 -0.373782804573 -0.373781863505  0.028544447539
  0.205029296875 -0.376652035379 -0.376651094271  0.028611105698
  0.205468750000 -0.379524981835 -0.379524040688  0.028677363689
  0.205908203125 -0.382401595249 -0.382400654064  0.028743222049
  0.206347656250 -0.385281827287 -0.385280886062  0.028808681316
  0.206787109375 -0.388165629970 -0.388164688705  0.028873742026
  0.207226562500 -0.391052955667 -0.391052014362  0.028938404716
  0.207666015625 -0.393943757097 -0.393942815752  0.029002669922
  0.208105468750 -0.396837987325 -0.396837045940  0.029066538179
  0.208544921875 -0.399735599753 -0.399734658328  0.029130010024
  0.208984375000 -0.402636548125 -0.402635606660  0.029193085991
  0.209423828125 -0.405540786516 -0.405539845010  0.029255766615
  0.209863281250 -0.408448269336 -0.408447327788  0.029318052431
  0.210302734375 -0.411358951320 -0.411358009732  0.029379943972
  0.210742187500 -0.414272787531 -0.414271845902  0.029441441774
  0.211181640625 -0.417189733354 -0.417188791683  0.029502546369
  0.211621093750 -0.420109744491 -0.420108802778  0.029563258290
  0.212060546875 -0.423032776962 -0.423031835208  0.029623578072
  0.212500000000 -0.425958787102 -0.425957845305  0.029683506246
  0.212939453125 -0.428887731552 -0.428886789714  0.029743043345
  0.213378906250 -0.431819567266 -0.431818625386  0.029802189901
  0.213818359375 -0.434754251498 -0.434753309575  0.029860946447
  0.214257812500 -0.437691741807 -0.437690799842  0.029919313514
  0.214697265625 -0.440631996049 -0.440631054041  0.029977291634
  0.215136718750 -0.443574972378 -0.443574030328  0.030034881337
  0.215576171875 -0.446520629241 -0.446519687148  0.030092083155
  0.216015625000 -0.449468925377 -0.449467983240  0.030148897618
  0.216455078125 -0.452419819810 -0.452418877630  0.030205325258
  0.216894531250 -0.455373271854 -0.455372329631  0.030261366603
  0.217333984375 -0.458329241103 -0.458328298837  0.030317022185
  0.217773437500 -0.461287687434 -0.461286745123  0.030372292533
  0.218212890625 -0.464248570999 -0.464247628645  0.030427178178
  0.218652343750 -0.467211852228 -0.467210909830  0.030481679647
  0.219091796875 -0.470177491823 -0.470176549381  0.030535797471
  0.219531250000 -0.473145450757 -0.473144508271  0.030589532178
  0.219970703125 -0.476115690269 -0.476114747739  0.030642884298
  0.220410156250 -0.479088171867 -0.479087229293  0.030695854358
  0.220849609375 -0.482062857321 -0.482061914701  0.030748442888
  0.221289062500 -0.485039708660 -0.485038765996  0.030800650416
  0.221728515625 -0.488018688174 -0.488017745465  0.030852477470
  0.222167968750 -0.490999758409 -0.490998815655  0.030903924577
  0.222607421875 -0.493982882164 -0.493981939365  0.030954992266
  0.223046875000 -0.496968022490 -0.496967079646  0.031005681064
  0.223486328125 -0.499955142689 -0.499954199800  0.031055991499
  0.223925781250 -0.502944206309 -0.502943263375  0.031105924097
  0.224365234375 -0.505935177144 -0.505934234164  0.031155479387
  0.224804687500 -0.508928019230 -0.508927076204  0.031204657895
  0.225244140625 -0.511922696844 -0.511921753773  0.031253460147
  0.225683593750 -0.514919174502 -0.514918231386  0.031301886671
  0.226123046875 -0.517917416959 -0.517916473796  0.031349937994
  0.226562500000 -0.520917389200 -0.520916445991  0.031397614641
  0.227001953125 -0.523919056447 -0.523918113192  0.031444917138
  0.227441406250 -0.526922384150 -0.526921440848  0.031491846014
  0.227880859375 -0.529927337988 -0.529926394640  0.031538401792
  0.228320312500 -0.532933883867 -0.532932940473  0.031584585000
  0.228759765625 -0.535941987917 -0.535941044477  0.031630396162
  0.229199218750 -0.538951616493 -0.538950673006  0.031675835806
  0.229638671875 -0.541962736167 -0.541961792633  0.031720904456
  0.230078125000 -0.544975313732 -0.544974370151  0.031765602638
  0.230517578125 -0.547989316198 -0.547988372570  0.031809930878
  0.230957031250 -0.551004710790 -0.551003767116  0.031853889701
  0.231396484375 -0.554021464947 -0.554020521225  0.031897479632
  0.231835937500 -0.557039546317 -0.557038602548  0.031940701196
  0.232275390625 -0.560058922760 -0.560057978944  0.031983554919
  0.232714843750 -0.563079562344 -0.563078618481  0.032026041325
  0.233154296875 -0.566101433341 -0.566100489430  0.032068160939
  0.233593750000 -0.569124504230 -0.569123560272  0.032109914287
  0.234033203125 -0.572148743691 -0.572147799685  0.032151301894
