radius      S_expected         S_actual            Error 
  0.200000000000  0.001830793520  0.001826411192  1.307493016014
  0.240000000000  0.001620594597  0.001622494470  1.311466573972
  0.280000000000  0.001152732945  0.001153722619  1.326264048659
  0.320000000000  0.000521032473  0.000521374259  1.376018279453
  0.360000000000 -0.000206941153 -0.000207048263  1.434279458595
  0.400000000000 -0.000979449020 -0.000979859249  1.455552237946
  0.440000000000 -0.001755100162 -0.001755707252  1.460481875433
  0.480000000000 -0.002499714570 -0.002500440736  1.466245663363
  0.520000000000 -0.003184400724 -0.003185188630  1.490784182992
  0.560000000000 -0.003784309438 -0.003785116538  1.536802634755
  0.600000000000 -0.004277785850 -0.004278580409  1.575666887705
  0.640000000000 -0.004645766159 -0.004646524423  1.587541647784
  0.680000000000 -0.004871329934 -0.004872034111  1.591171426367
  0.720000000000 -0.004939353913 -0.004939990707  1.601016245408
  0.760000000000 -0.004836233367 -0.004836792899  1.639887571378
  0.800000000000 -0.004549649273 -0.004550124280  1.701943565548
  0.840000000000 -0.004068367242 -0.004068752479  1.731057406318
  0.880000000000 -0.003382059163 -0.003382350939  1.737742099781
  0.920000000000 -0.002481141928 -0.002481337759  1.741898459007
  0.960000000000 -0.001356629976 -0.001356728309  1.758986272407
  1.000000000000 -0.000000000000 -0.000000000000  1.800000000000
