radius      S_expected         S_actual            Error 
  0.100000000000  0.000000000000  0.000000000000  0.010000000149
  0.103703703704  0.024713068433  0.024678965368  0.000034103065
  0.107407407407  0.049222663750  0.049188560684  0.000034103065
  0.111111111111  0.073528776359  0.073494673294  0.000034103065
  0.114814814815  0.097631396673  0.097597293607  0.000034103065
  0.118518518519  0.121530515101  0.121496412035  0.000034103065
  0.122222222222  0.145226122055  0.145192018989  0.000034103065
  0.125925925926  0.168718207947  0.168684104882  0.000034103065
  0.129629629630  0.192006763191  0.191972660125  0.000034103065
  0.133333333333  0.215091778199  0.215057675134  0.000034103065
  0.137037037037  0.237973243385  0.237939140320  0.000034103065
  0.140740740741  0.260651149164  0.260617046099  0.000034103065
  0.144444444444  0.283125485950  0.283091382885  0.000034103065
  0.148148148148  0.305396244160  0.305362141094  0.000034103065
  0.151851851852  0.327463414208  0.327429311143  0.000034103065
  0.155555555556  0.349326986513  0.349292883447  0.000034103065
  0.159259259259  0.370986951491  0.370952848425  0.000034103065
  0.162962962963  0.392443299559  0.392409196494  0.000034103065
  0.166666666667  0.413696021137  0.413661918072  0.000034103065
  0.170370370370  0.434745106643  0.434711003578  0.000034103065
  0.174074074074  0.455590546498  0.455556443432  0.000034103065
  0.177777777778  0.476232331120  0.476198228055  0.000034103065
  0.181481481481  0.496670450932  0.496636347867  0.000034103065
  0.185185185185  0.516904896354  0.516870793289  0.000034103065
  0.188888888889  0.536935657809  0.536901554743  0.000034103065
  0.192592592593  0.556762725718  0.556728622653  0.000034103065
  0.196296296296  0.576386090506  0.576351987440  0.000034103065
  0.200000000000  0.595805742596  0.595771639530  0.000034103065
  0.203703703704  0.615021672412  0.614987569347  0.000034103065
  0.207407407407  0.634033870380  0.633999767315  0.000034103065
  0.211111111111  0.652842326926  0.652808223860  0.000034103065
  0.214814814815  0.671447032474  0.671412929409  0.000034103065
  0.218518518519  0.689847977454  0.689813874388  0.000034103065
  0.222222222222  0.708045152291  0.708011049226  0.000034103065
  0.225925925926  0.726038547415  0.726004444350  0.000034103065
  0.229629629630  0.743828153254  0.743794050188  0.000034103065
  0.233333333333  0.761413960237  0.761379857172  0.000034103065
  0.237037037037  0.778795958795  0.778761855730  0.000034103065
  0.240740740741  0.795974139358  0.795940036293  0.000034103065
  0.244444444444  0.812948492358  0.812914389293  0.000034103065
  0.248148148148  0.829719008227  0.829684905162  0.000034103065
  0.251851851852  0.846285677397  0.846251574332  0.000034103065
  0.255555555556  0.862648490302  0.862614387237  0.000034103065
  0.259259259259  0.878807437376  0.878773334311  0.000034103065
  0.262962962963  0.894762509054  0.894728405988  0.000034103065
  0.266666666667  0.910513695770  0.910479592704  0.000034103065
  0.270370370370  0.926060987961  0.926026884895  0.000034103065
  0.274074074074  0.941404376063  0.941370272997  0.000034103065
  0.277777777778  0.956543850514  0.956509747448  0.000034103065
  0.281481481481  0.971479401751  0.971445298686  0.000034103065
  0.285185185185  0.986211020215  0.986176917149  0.000034103065
  0.288888888889  1.000738696342  1.000704593277  0.000034103065
  0.292592592593  1.015062420575  1.015028317509  0.000034103065
  0.296296296296  1.029182183353  1.029148080287  0.000034103065
  0.300000000000  1.043097975118  1.043063872052  0.000034103065
  0.303703703704  1.056809786312  1.056775683246  0.000034103065
  0.307407407407  1.070317607377  1.070283504312  0.000034103065
  0.311111111111  1.083621428758  1.083587325693  0.000034103065
  0.314814814815  1.096721240898  1.096687137833  0.000034103065
  0.318518518519  1.109617034243  1.109582931177  0.000034103065
  0.322222222222  1.122308799237  1.122274696172  0.000034103065
  0.325925925926  1.134796526328  1.134762423263  0.000034103065
  0.329629629630  1.147080205962  1.147046102896  0.000034103065
  0.333333333333  1.159159828587  1.159125725521  0.000034103065
  0.337037037037  1.171035384651  1.171001281585  0.000034103065
  0.340740740741  1.182706864603  1.182672761538  0.000034103065
  0.344444444444  1.194174258894  1.194140155829  0.000034103065
  0.348148148148  1.205437557974  1.205403454909  0.000034103065
  0.351851851852  1.216496752295  1.216462649229  0.000034103065
  0.355555555556  1.227351832308  1.227317729242  0.000034103065
  0.359259259259  1.238002788465  1.237968685400  0.000034103065
  0.362962962963  1.248449611222  1.248415508156  0.000034103065
  0.366666666667  1.258692291031  1.258658187966  0.000034103065
  0.370370370370  1.268730818349  1.268696715283  0.000034103065
  0.374074074074  1.278565183630  1.278531080565  0.000034103065
  0.377777777778  1.288195377331  1.288161274266  0.000034103065
  0.381481481481  1.297621389910  1.297587286845  0.000034103065
  0.385185185185  1.306843211824  1.306809108759  0.000034103065
  0.388888888889  1.315860833533  1.315826730468  0.000034103065
  0.392592592593  1.324674245495  1.324640142430  0.000034103065
  0.396296296296  1.333283438171  1.333249335106  0.000034103065
  0.400000000000  1.341688402023  1.341654298957  0.000034103065
  0.403703703704  1.349889127511  1.349855024445  0.000034103065
  0.407407407407  1.357885605098  1.357851502033  0.000034103065
  0.411111111111  1.365677825248  1.365643722183  0.000034103065
  0.414814814815  1.373265778425  1.373231675360  0.000034103065
  0.418518518519  1.380649455094  1.380615352029  0.000034103065
  0.422222222222  1.387828845720  1.387794742655  0.000034103065
  0.425925925926  1.394803940771  1.394769837705  0.000034103065
  0.429629629630  1.401574730712  1.401540627647  0.000034103065
  0.433333333333  1.408141206013  1.408107102947  0.000034103065
  0.437037037037  1.414503357141  1.414469254076  0.000034103065
  0.440740740741  1.420661174568  1.420627071502  0.000034103065
  0.444444444444  1.426614648762  1.426580545697  0.000034103065
  0.448148148148  1.432363770196  1.432329667130  0.000034103065
  0.451851851852  1.437908529341  1.437874426275  0.000034103065
  0.455555555556  1.443248916670  1.443214813604  0.000034103065
  0.459259259259  1.448384922657  1.448350819591  0.000034103065
  0.462962962963  1.453316537776  1.453282434711  0.000034103065
  0.466666666667  1.458043752503  1.458009649438  0.000034103065
  0.470370370370  1.462566557313  1.462532454248  0.000034103065
  0.474074074074  1.466884942684  1.466850839619  0.000034103065
  0.477777777778  1.470998899094  1.470964796028  0.000034103065
  0.481481481481  1.474908417020  1.474874313954  0.000034103065
  0.485185185185  1.478613486942  1.478579383876  0.000034103065
  0.488888888889  1.482114099340  1.482079996275  0.000034103065
  0.492592592593  1.485410244696  1.485376141631  0.000034103065
  0.496296296296  1.488501913492  1.488467810426  0.000034103065
  0.500000000000  1.491389096209  1.491354993144  0.000034103065
  0.503703703704  1.494071783332  1.494037680267  0.000034103065
  0.507407407407  1.496549965345  1.496515862280  0.000034103065
  0.511111111111  1.498823632733  1.498789529668  0.000034103065
  0.514814814815  1.500892775983  1.500858672918  0.000034103065
  0.518518518519  1.502757385581  1.502723282516  0.000034103065
  0.522222222222  1.504417452015  1.504383348950  0.000034103065
  0.525925925926  1.505872965775  1.505838862709  0.000034103065
  0.529629629630  1.507123917348  1.507089814283  0.000034103065
  0.533333333333  1.508170297226  1.508136194161  0.000034103065
  0.537037037037  1.509012095901  1.508977992835  0.000034103065
  0.540740740741  1.509649303864  1.509615200798  0.000034103065
  0.544444444444  1.510081911607  1.510047808542  0.000034103065
  0.548148148148  1.510309909626  1.510275806561  0.000034103065
  0.551851851852  1.510333288415  1.510299185350  0.000034103065
  0.555555555556  1.510152038470  1.510117935404  0.000034103065
  0.559259259259  1.509766150286  1.509732047221  0.000034103065
  0.562962962963  1.509175614363  1.509141511297  0.000034103065
  0.566666666667  1.508380421197  1.508346318131  0.000034103065
  0.570370370370  1.507380561288  1.507346458222  0.000034103065
  0.574074074074  1.506176025136  1.506141922070  0.000034103065
  0.577777777778  1.504766803242  1.504732700177  0.000034103065
  0.581481481481  1.503152886109  1.503118783043  0.000034103065
  0.585185185185  1.501334264238  1.501300161172  0.000034103065
  0.588888888889  1.499310928134  1.499276825068  0.000034103065
  0.592592592593  1.497082868301  1.497048765235  0.000034103065
  0.596296296296  1.494650075245  1.494615972179  0.000034103065
  0.600000000000  1.492012539472  1.491978436406  0.000034103065
  0.603703703704  1.489170251489  1.489136148424  0.000034103065
  0.607407407407  1.486123201806  1.486089098740  0.000034103065
  0.611111111111  1.482871380930  1.482837277865  0.000034103065
  0.614814814815  1.479414779373  1.479380676307  0.000034103065
  0.618518518519  1.475753387645  1.475719284579  0.000034103065
  0.622222222222  1.471887196258  1.471853093192  0.000034103065
  0.625925925926  1.467816195725  1.467782092660  0.000034103065
  0.629629629630  1.463540376561  1.463506273495  0.000034103065
  0.633333333333  1.459059729279  1.459025626214  0.000034103065
  0.637037037037  1.454374244396  1.454340141331  0.000034103065
  0.640740740741  1.449483912429  1.449449809363  0.000034103065
  0.644444444444  1.444388723894  1.444354620829  0.000034103065
  0.648148148148  1.439088669311  1.439054566246  0.000034103065
  0.651851851852  1.433583739199  1.433549636134  0.000034103065
  0.655555555556  1.427873924079  1.427839821013  0.000034103065
  0.659259259259  1.421959214472  1.421925111406  0.000034103065
  0.662962962963  1.415839600900  1.415805497835  0.000034103065
  0.666666666667  1.409515073888  1.409480970822  0.000034103065
  0.670370370370  1.402985623959  1.402951520893  0.000034103065
  0.674074074074  1.396251241638  1.396217138573  0.000034103065
  0.677777777778  1.389311917452  1.389277814387  0.000034103065
  0.681481481481  1.382167641929  1.382133538864  0.000034103066
  0.685185185185  1.374818405596  1.374784302531  0.000034103065
  0.688888888889  1.367264198983  1.367230095918  0.000034103065
  0.692592592593  1.359505012620  1.359470909555  0.000034103065
  0.696296296296  1.351540837038  1.351506733973  0.000034103065
  0.700000000000  1.343371662770  1.343337559705  0.000034103065
  0.703703703704  1.334997480348  1.334963377283  0.000034103065
  0.707407407407  1.326418280307  1.326384177242  0.000034103065
  0.711111111111  1.317634053182  1.317599950117  0.000034103065
  0.714814814815  1.308644789510  1.308610686444  0.000034103065
  0.718518518519  1.299450479827  1.299416376761  0.000034103065
  0.722222222222  1.290051114671  1.290017011606  0.000034103065
  0.725925925926  1.280446684582  1.280412581517  0.000034103065
  0.729629629630  1.270637180101  1.270603077035  0.000034103065
  0.733333333333  1.260622591768  1.260588488702  0.000034103065
  0.737037037037  1.250402910125  1.250368807059  0.000034103065
  0.740740740741  1.239978125716  1.239944022651  0.000034103065
  0.744444444444  1.229348229085  1.229314126020  0.000034103065
  0.748148148148  1.218513210778  1.218479107713  0.000034103065
  0.751851851852  1.207473061341  1.207438958276  0.000034103065
  0.755555555556  1.196227771321  1.196193668256  0.000034103065
  0.759259259259  1.184777331267  1.184743228202  0.000034103065
  0.762962962963  1.173121731728  1.173087628663  0.000034103065
  0.766666666667  1.161260963255  1.161226860189  0.000034103065
  0.770370370370  1.149195016398  1.149160913333  0.000034103065
  0.774074074074  1.136923881712  1.136889778647  0.000034103065
  0.777777777778  1.124447549749  1.124413446684  0.000034103065
  0.781481481481  1.111766011064  1.111731907999  0.000034103065
  0.785185185185  1.098879256214  1.098845153148  0.000034103065
  0.788888888889  1.085787275754  1.085753172688  0.000034103065
  0.792592592593  1.072490060242  1.072455957177  0.000034103065
  0.796296296296  1.058987600238  1.058953497172  0.000034103065
  0.800000000000  1.045279886301  1.045245783236  0.000034103065
  0.803703703704  1.031366908993  1.031332805928  0.000034103066
  0.807407407407  1.017248658876  1.017214555810  0.000034103065
  0.811111111111  1.002925126512  1.002891023447  0.000034103065
  0.814814814815  0.988396302467  0.988362199401  0.000034103065
  0.818518518519  0.973662177305  0.973628074239  0.000034103065
  0.822222222222  0.958722741593  0.958688638527  0.000034103065
  0.825925925926  0.943577985898  0.943543882833  0.000034103065
  0.829629629630  0.928227900790  0.928193797724  0.000034103065
  0.833333333333  0.912672476837  0.912638373771  0.000034103065
  0.837037037037  0.896911704611  0.896877601545  0.000034103065
  0.840740740741  0.880945574683  0.880911471617  0.000034103065
  0.844444444444  0.864774077626  0.864739974561  0.000034103065
  0.848148148148  0.848397204015  0.848363100950  0.000034103065
  0.851851851852  0.831814944425  0.831780841359  0.000034103065
  0.855555555556  0.815027289431  0.814993186366  0.000034103065
  0.859259259259  0.798034229612  0.798000126547  0.000034103065
  0.862962962963  0.780835755546  0.780801652481  0.000034103066
  0.866666666667  0.763431857812  0.763397754747  0.000034103065
  0.870370370370  0.745822526992  0.745788423926  0.000034103065
  0.874074074074  0.728007753666  0.727973650601  0.000034103065
  0.877777777778  0.709987528419  0.709953425354  0.000034103065
  0.881481481481  0.691761841834  0.691727738768  0.000034103065
  0.885185185185  0.673330684496  0.673296581431  0.000034103065
  0.888888888889  0.654694046992  0.654659943927  0.000034103065
  0.892592592593  0.635851919910  0.635817816844  0.000034103065
  0.896296296296  0.616804293837  0.616770190771  0.000034103065
  0.900000000000  0.597551159364  0.597517056298  0.000034103065
  0.903703703704  0.578092507081  0.578058404016  0.000034103065
  0.907407407407  0.558428327582  0.558394224516  0.000034103065
  0.911111111111  0.538558611458  0.538524508392  0.000034103065
  0.914814814815  0.518483349304  0.518449246239  0.000034103065
  0.918518518519  0.498202531716  0.498168428651  0.000034103066
  0.922222222222  0.477716149291  0.477682046225  0.000034103065
  0.925925925926  0.457024192626  0.456990089560  0.000034103065
  0.929629629630  0.436126652320  0.436092549254  0.000034103065
  0.933333333333  0.415023518973  0.414989415908  0.000034103066
  0.937037037037  0.393714783187  0.393680680122  0.000034103065
  0.940740740741  0.372200435565  0.372166332499  0.000034103065
  0.944444444444  0.350480466709  0.350446363643  0.000034103066
  0.948148148148  0.328554867225  0.328520764159  0.000034103066
  0.951851851852  0.306423627719  0.306389524653  0.000034103065
  0.955555555556  0.284086738797  0.284052635732  0.000034103065
  0.959259259259  0.261544191069  0.261510088003  0.000034103065
  0.962962962963  0.238795975143  0.238761872078  0.000034103065
  0.966666666667  0.215842081632  0.215807978566  0.000034103065
  0.970370370370  0.192682501145  0.192648398080  0.000034103065
  0.974074074074  0.169317224298  0.169283121232  0.000034103065
  0.977777777778  0.145746241703  0.145712138637  0.000034103065
  0.981481481481  0.121969543976  0.121935440911  0.000034103066
  0.985185185185  0.097987121735  0.097953018670  0.000034103065
  0.988888888889  0.073798965597  0.073764862532  0.000034103065
  0.992592592593  0.049405066182  0.049370963116  0.000034103065
  0.996296296296  0.024805414109  0.024771311043  0.000034103065
  1.000000000000 -0.000000000000  0.000000000000  0.100000001490
