radius      S_expected         S_actual            Error 
  0.100000000000 -0.000000000000 -0.000000000000  1.801496739346
  0.101757812500  0.000004945588  0.000004945650  1.801493823251
  0.103515625000  0.000009749258  0.000009749375  1.801490907125
  0.105273437500  0.000014415865  0.000014416032  1.801487990966
  0.107031250000  0.000018950007  0.000018950220  1.801485074777
  0.108789062500  0.000023356049  0.000023356303  1.801482158555
  0.110546875000  0.000027638133  0.000027638425  1.801479242302
  0.112304687500  0.000031800200  0.000031800524  1.801476326017
  0.114062500000  0.000035845994  0.000035846349  1.801473409701
  0.115820312500  0.000039779085  0.000039779467  1.801470493353
  0.117578125000  0.000043602872  0.000043603278  1.801467576974
  0.119335937500  0.000047320598  0.000047321025  1.801464660564
  0.121093750000  0.000050935359  0.000050935806  1.801461744122
  0.122851562500  0.000054450112  0.000054450577  1.801458827648
  0.124609375000  0.000057867687  0.000057868167  1.801455911143
  0.126367187500  0.000061190787  0.000061191281  1.801452994607
  0.128125000000  0.000064422005  0.000064422510  1.801450078039
  0.129882812500  0.000067563822  0.000067564337  1.801447161440
  0.131640625000  0.000070618618  0.000070619142  1.801444244810
  0.133398437500  0.000073588677  0.000073589209  1.801441328148
  0.135156250000  0.000076476192  0.000076476731  1.801438411455
  0.136914062500  0.000079283269  0.000079283814  1.801435494731
  0.138671875000  0.000082011934  0.000082012483  1.801432577975
  0.140429687500  0.000084664133  0.000084664686  1.801429661189
  0.142187500000  0.000087241742  0.000087242298  1.801426744371
  0.143945312500  0.000089746566  0.000089747124  1.801423827522
  0.145703125000  0.000092180344  0.000092180903  1.801420910641
  0.147460937500  0.000094544754  0.000094545314  1.801417993730
  0.149218750000  0.000096841413  0.000096841973  1.801415076787
  0.150976562500  0.000099071881  0.000099072441  1.801412159813
  0.152734375000  0.000101237668  0.000101238227  1.801409242809
  0.154492187500  0.000103340228  0.000103340785  1.801406325773
  0.156250000000  0.000105380969  0.000105381525  1.801403408706
  0.158007812500  0.000107361253  0.000107361807  1.801400491608
  0.159765625000  0.000109282396  0.000109282947  1.801397574479
  0.161523437500  0.000111145672  0.000111146221  1.801394657319
  0.163281250000  0.000112952316  0.000112952861  1.801391740128
  0.165039062500  0.000114703523  0.000114704065  1.801388822906
  0.166796875000  0.000116400451  0.000116400989  1.801385905653
  0.168554687500  0.000118044224  0.000118044759  1.801382988369
  0.170312500000  0.000119635931  0.000119636462  1.801380071055
  0.172070312500  0.000121176629  0.000121177156  1.801377153709
  0.173828125000  0.000122667345  0.000122667868  1.801374236333
  0.175585937500  0.000124109076  0.000124109594  1.801371318926
  0.177343750000  0.000125502788  0.000125503302  1.801368401487
  0.179101562500  0.000126849424  0.000126849933  1.801365484019
  0.180859375000  0.000128149897  0.000128150402  1.801362566519
  0.182617187500  0.000129405098  0.000129405597  1.801359648989
  0.184375000000  0.000130615890  0.000130616385  1.801356731427
  0.186132812500  0.000131783117  0.000131783607  1.801353813836
  0.187890625000  0.000132907599  0.000132908083  1.801350896213
  0.189648437500  0.000133990133  0.000133990612  1.801347978560
  0.191406250000  0.000135031497  0.000135031971  1.801345060876
  0.193164062500  0.000136032448  0.000136032918  1.801342143161
  0.194921875000  0.000136993727  0.000136994191  1.801339225416
  0.196679687500  0.000137916052  0.000137916511  1.801336307640
  0.198437500000  0.000138800126  0.000138800580  1.801333389834
  0.200195312500  0.000139646634  0.000139647083  1.801330471997
  0.201953125000  0.000140456246  0.000140456689  1.801327554130
  0.203710937500  0.000141229614  0.000141230052  1.801324636232
  0.205468750000  0.000141967375  0.000141967808  1.801321718303
  0.207226562500  0.000142670152  0.000142670579  1.801318800344
  0.208984375000  0.000143338553  0.000143338976  1.801315882355
  0.210742187500  0.000143973174  0.000143973591  1.801312964335
  0.212500000000  0.000144574594  0.000144575006  1.801310046285
  0.214257812500  0.000145143382  0.000145143789  1.801307128204
  0.216015625000  0.000145680094  0.000145680496  1.801304210093
  0.217773437500  0.000146185273  0.000146185670  1.801301291952
  0.219531250000  0.000146659451  0.000146659842  1.801298373780
  0.221289062500  0.000147103148  0.000147103535  1.801295455578
  0.223046875000  0.000147516874  0.000147517256  1.801292537345
  0.224804687500  0.000147901128  0.000147901505  1.801289619083
  0.226562500000  0.000148256399  0.000148256771  1.801286700790
  0.228320312500  0.000148583164  0.000148583531  1.801283782467
  0.230078125000  0.000148881894  0.000148882256  1.801280864113
  0.231835937500  0.000149153048  0.000149153405  1.801277945730
  0.233593750000  0.000149397076  0.000149397428  1.801275027316
  0.235351562500  0.000149614420  0.000149614768  1.801272108872
  0.237109375000  0.000149805513  0.000149805856  1.801269190398
  0.238867187500  0.000149970780  0.000149971119  1.801266271894
  0.240625000000  0.000150110639  0.000150110972  1.801263353359
  0.242382812500  0.000150225497  0.000150225826  1.801260434795
  0.244140625000  0.000150315757  0.000150316081  1.801257516200
  0.245898437500  0.000150381812  0.000150382132  1.801254597576
  0.247656250000  0.000150424049  0.000150424365  1.801251678921
  0.249414062500  0.000150442849  0.000150443160  1.801248760237
  0.251171875000  0.000150438584  0.000150438891  1.801245841522
  0.252929687500  0.000150411621  0.000150411924  1.801242922778
  0.254687500000  0.000150362320  0.000150362618  1.801240004003
  0.256445312500  0.000150291035  0.000150291329  1.801237085199
  0.258203125000  0.000150198114  0.000150198404  1.801234166364
  0.259960937500  0.000150083899  0.000150084185  1.801231247500
  0.261718750000  0.000149948726  0.000149949008  1.801228328606
  0.263476562500  0.000149792925  0.000149793203  1.801225409682
  0.265234375000  0.000149616823  0.000149617096  1.801222490729
  0.266992187500  0.000149420738  0.000149421007  1.801219571745
  0.268750000000  0.000149204985  0.000149205251  1.801216652732
  0.270507812500  0.000148969874  0.000148970136  1.801213733689
  0.272265625000  0.000148715710  0.000148715969  1.801210814616
  0.274023437500  0.000148442793  0.000148443048  1.801207895513
  0.275781250000  0.000148151418  0.000148151669  1.801204976381
  0.277539062500  0.000147841876  0.000147842123  1.801202057219
  0.279296875000  0.000147514453  0.000147514696  1.801199138027
  0.281054687500  0.000147169430  0.000147169670  1.801196218806
  0.282812500000  0.000146807087  0.000146807323  1.801193299555
  0.284570312500  0.000146427696  0.000146427929  1.801190380275
  0.286328125000  0.000146031527  0.000146031757  1.801187460964
  0.288085937500  0.000145618846  0.000145619072  1.801184541625
  0.289843750000  0.000145189915  0.000145190137  1.801181622256
  0.291601562500  0.000144744991  0.000144745210  1.801178702857
  0.293359375000  0.000144284329  0.000144284545  1.801175783428
  0.295117187500  0.000143808180  0.000143808393  1.801172863971
  0.296875000000  0.000143316792  0.000143317001  1.801169944483
  0.298632812500  0.000142810408  0.000142810614  1.801167024967
  0.300390625000  0.000142289269  0.000142289472  1.801164105421
  0.302148437500  0.000141753612  0.000141753812  1.801161185845
  0.303906250000  0.000141203672  0.000141203869  1.801158266240
  0.305664062500  0.000140639679  0.000140639873  1.801155346606
  0.307421875000  0.000140061862  0.000140062053  1.801152426942
  0.309179687500  0.000139470445  0.000139470633  1.801149507249
  0.310937500000  0.000138865651  0.000138865836  1.801146587527
  0.312695312500  0.000138247699  0.000138247881  1.801143667775
  0.314453125000  0.000137616805  0.000137616984  1.801140747994
  0.316210937500  0.000136973183  0.000136973359  1.801137828184
  0.317968750000  0.000136317044  0.000136317218  1.801134908345
  0.319726562500  0.000135648597  0.000135648768  1.801131988476
  0.321484375000  0.000134968048  0.000134968216  1.801129068579
  0.323242187500  0.000134275599  0.000134275764  1.801126148652
  0.325000000000  0.000133571451  0.000133571614  1.801123228696
  0.326757812500  0.000132855804  0.000132855964  1.801120308710
  0.328515625000  0.000132128853  0.000132129010  1.801117388696
  0.330273437500  0.000131390791  0.000131390946  1.801114468653
  0.332031250000  0.000130641812  0.000130641964  1.801111548580
  0.333789062500  0.000129882103  0.000129882253  1.801108628479
  0.335546875000  0.000129111852  0.000129112000  1.801105708348
  0.337304687500  0.000128331244  0.000128331389  1.801102788188
  0.339062500000  0.000127540462  0.000127540604  1.801099868000
  0.340820312500  0.000126739686  0.000126739826  1.801096947782
  0.342578125000  0.000125929096  0.000125929234  1.801094027536
  0.344335937500  0.000125108868  0.000125109004  1.801091107260
  0.346093750000  0.000124279178  0.000124279311  1.801088186956
  0.347851562500  0.000123440197  0.000123440328  1.801085266623
  0.349609375000  0.000122592098  0.000122592227  1.801082346260
  0.351367187500  0.000121735050  0.000121735177  1.801079425869
  0.353125000000  0.000120869220  0.000120869345  1.801076505450
  0.354882812500  0.000119994774  0.000119994897  1.801073585001
  0.356640625000  0.000119111876  0.000119111996  1.801070664523
  0.358398437500  0.000118220688  0.000118220807  1.801067744017
  0.360156250000  0.000117321371  0.000117321488  1.801064823482
  0.361914062500  0.000116414085  0.000116414199  1.801061902919
  0.363671875000  0.000115498986  0.000115499098  1.801058982326
  0.365429687500  0.000114576230  0.000114576340  1.801056061705
  0.367187500000  0.000113645971  0.000113646080  1.801053141055
  0.368945312500  0.000112708363  0.000112708470  1.801050220377
  0.370703125000  0.000111763556  0.000111763661  1.801047299670
  0.372460937500  0.000110811701  0.000110811804  1.801044378934
  0.374218750000  0.000109852946  0.000109853047  1.801041458169
  0.375976562500  0.000108887437  0.000108887536  1.801038537377
  0.377734375000  0.000107915320  0.000107915417  1.801035616555
  0.379492187500  0.000106936739  0.000106936835  1.801032695705
  0.381250000000  0.000105951838  0.000105951932  1.801029774827
  0.383007812500  0.000104960757  0.000104960849  1.801026853920
  0.384765625000  0.000103963637  0.000103963728  1.801023932984
  0.386523437500  0.000102960617  0.000102960705  1.801021012020
  0.388281250000  0.000101951834  0.000101951921  1.801018091028
  0.390039062500  0.000100937424  0.000100937509  1.801015170007
  0.391796875000  0.000099917523  0.000099917607  1.801012248958
  0.393554687500  0.000098892265  0.000098892347  1.801009327880
  0.395312500000  0.000097861783  0.000097861863  1.801006406774
  0.397070312500  0.000096826207  0.000096826286  1.801003485640
  0.398828125000  0.000095785670  0.000095785747  1.801000564477
  0.400585937500  0.000094740299  0.000094740375  1.800997643286
  0.402343750000  0.000093690223  0.000093690298  1.800994722067
  0.404101562500  0.000092635570  0.000092635643  1.800991800820
  0.405859375000  0.000091576465  0.000091576537  1.800988879544
  0.407617187500  0.000090513034  0.000090513104  1.800985958240
  0.409375000000  0.000089445401  0.000089445469  1.800983036908
  0.411132812500  0.000088373687  0.000088373754  1.800980115548
  0.412890625000  0.000087298016  0.000087298082  1.800977194159
  0.414648437500  0.000086218508  0.000086218573  1.800974272743
  0.416406250000  0.000085135284  0.000085135347  1.800971351298
  0.418164062500  0.000084048462  0.000084048524  1.800968429825
  0.419921875000  0.000082958160  0.000082958221  1.800965508324
  0.421679687500  0.000081864496  0.000081864555  1.800962586795
  0.423437500000  0.000080767585  0.000080767643  1.800959665238
  0.425195312500  0.000079667544  0.000079667601  1.800956743653
  0.426953125000  0.000078564486  0.000078564541  1.800953822040
  0.428710937500  0.000077458525  0.000077458579  1.800950900399
  0.430468750000  0.000076349773  0.000076349826  1.800947978730
  0.432226562500  0.000075238343  0.000075238395  1.800945057034
  0.433984375000  0.000074124345  0.000074124396  1.800942135309
  0.435742187500  0.000073007890  0.000073007940  1.800939213556
  0.437500000000  0.000071889087  0.000071889135  1.800936291775
  0.439257812500  0.000070768044  0.000070768091  1.800933369967
  0.441015625000  0.000069644868  0.000069644915  1.800930448131
  0.442773437500  0.000068519668  0.000068519713  1.800927526267
  0.444531250000  0.000067392549  0.000067392593  1.800924604375
  0.446289062500  0.000066263617  0.000066263660  1.800921682455
  0.448046875000  0.000065132976  0.000065133017  1.800918760507
  0.449804687500  0.000064000729  0.000064000770  1.800915838532
  0.451562500000  0.000062866981  0.000062867021  1.800912916529
  0.453320312500  0.000061731834  0.000061731872  1.800909994499
  0.455078125000  0.000060595389  0.000060595426  1.800907072440
  0.456835937500  0.000059457747  0.000059457783  1.800904150354
  0.458593750000  0.000058319009  0.000058319044  1.800901228241
  0.460351562500  0.000057179274  0.000057179309  1.800898306100
  0.462109375000  0.000056038641  0.000056038675  1.800895383931
  0.463867187500  0.000054897210  0.000054897242  1.800892461734
  0.465625000000  0.000053755076  0.000053755108  1.800889539510
  0.467382812500  0.000052612338  0.000052612369  1.800886617259
  0.469140625000  0.000051469091  0.000051469121  1.800883694980
  0.470898437500  0.000050325432  0.000050325461  1.800880772673
  0.472656250000  0.000049181455  0.000049181483  1.800877850339
  0.474414062500  0.000048037255  0.000048037282  1.800874927978
  0.476171875000  0.000046892926  0.000046892952  1.800872005589
  0.477929687500  0.000045748561  0.000045748587  1.800869083172
  0.479687500000  0.000044604253  0.000044604277  1.800866160728
  0.481445312500  0.000043460093  0.000043460117  1.800863238257
  0.483203125000  0.000042316174  0.000042316197  1.800860315759
  0.484960937500  0.000041172587  0.000041172609  1.800857393233
  0.486718750000  0.000040029421  0.000040029442  1.800854470680
  0.488476562500  0.000038886766  0.000038886787  1.800851548099
  0.490234375000  0.000037744713  0.000037744733  1.800848625491
  0.491992187500  0.000036603349  0.000036603368  1.800845702856
  0.493750000000  0.000035462763  0.000035462782  1.800842780194
  0.495507812500  0.000034323042  0.000034323060  1.800839857504
  0.497265625000  0.000033184274  0.000033184292  1.800836934788
  0.499023437500  0.000032046546  0.000032046562  1.800834012044
  0.500781250000  0.000030909942  0.000030909958  1.800831089273
  0.502539062500  0.000029774550  0.000029774565  1.800828166474
  0.504296875000  0.000028640454  0.000028640468  1.800825243649
  0.506054687500  0.000027507738  0.000027507752  1.800822320797
  0.507812500000  0.000026376488  0.000026376501  1.800819397917
  0.509570312500  0.000025246785  0.000025246798  1.800816475011
  0.511328125000  0.000024118715  0.000024118727  1.800813552077
  0.513085937500  0.000022992359  0.000022992370  1.800810629116
  0.514843750000  0.000021867800  0.000021867811  1.800807706129
  0.516601562500  0.000020745119  0.000020745129  1.800804783114
  0.518359375000  0.000019624398  0.000019624407  1.800801860072
  0.520117187500  0.000018505718  0.000018505727  1.800798937004
  0.521875000000  0.000017389159  0.000017389167  1.800796013908
  0.523632812500  0.000016274800  0.000016274808  1.800793090786
  0.525390625000  0.000015162723  0.000015162730  1.800790167636
  0.527148437500  0.000014053005  0.000014053012  1.800787244460
  0.528906250000  0.000012945726  0.000012945732  1.800784321257
  0.530664062500  0.000011840964  0.000011840970  1.800781398027
  0.532421875000  0.000010738797  0.000010738802  1.800778474771
  0.534179687500  0.000009639301  0.000009639306  1.800775551487
  0.535937500000  0.000008542555  0.000008542559  1.800772628177
  0.537695312500  0.000007448635  0.000007448638  1.800769704840
  0.539453125000  0.000006357617  0.000006357620  1.800766781477
  0.541210937500  0.000005269577  0.000005269579  1.800763858086
  0.542968750000  0.000004184591  0.000004184592  1.800760934669
  0.544726562500  0.000003102733  0.000003102734  1.800758011225
  0.546484375000  0.000002024078  0.000002024079  1.800755087755
  0.548242187500  0.000000948701  0.000000948702  1.800752164258
  0.550000000000 -0.000000123324 -0.000000123324  1.800749240734
  0.551757812500 -0.000001191924 -0.000001191925  1.800746317184
  0.553515625000 -0.000002257026 -0.000002257027  1.800743393608
  0.555273437500 -0.000003318556 -0.000003318557  1.800740470004
  0.557031250000 -0.000004376442 -0.000004376444  1.800737546374
  0.558789062500 -0.000005430613 -0.000005430615  1.800734622718
  0.560546875000 -0.000006480995 -0.000006480998  1.800731699035
  0.562304687500 -0.000007527518 -0.000007527522  1.800728775326
  0.564062500000 -0.000008570111 -0.000008570115  1.800725851590
  0.565820312500 -0.000009608703 -0.000009608707  1.800722927828
  0.567578125000 -0.000010643223 -0.000010643227  1.800720004039
  0.569335937500 -0.000011673601 -0.000011673606  1.800717080225
  0.571093750000 -0.000012699768 -0.000012699773  1.800714156383
  0.572851562500 -0.000013721653 -0.000013721658  1.800711232516
  0.574609375000 -0.000014739188 -0.000014739194  1.800708308622
  0.576367187500 -0.000015752305 -0.000015752311  1.800705384701
  0.578125000000 -0.000016760934 -0.000016760940  1.800702460755
  0.579882812500 -0.000017765007 -0.000017765014  1.800699536782
  0.581640625000 -0.000018764456 -0.000018764464  1.800696612783
  0.583398437500 -0.000019759215 -0.000019759222  1.800693688757
  0.585156250000 -0.000020749215 -0.000020749223  1.800690764706
  0.586914062500 -0.000021734389 -0.000021734397  1.800687840628
  0.588671875000 -0.000022714672 -0.000022714680  1.800684916524
  0.590429687500 -0.000023689996 -0.000023690005  1.800681992394
  0.592187500000 -0.000024660295 -0.000024660304  1.800679068238
  0.593945312500 -0.000025625505 -0.000025625514  1.800676144056
  0.595703125000 -0.000026585558 -0.000026585568  1.800673219847
  0.597460937500 -0.000027540390 -0.000027540400  1.800670295613
  0.599218750000 -0.000028489936 -0.000028489947  1.800667371352
  0.600976562500 -0.000029434132 -0.000029434142  1.800664447066
  0.602734375000 -0.000030372912 -0.000030372923  1.800661522753
  0.604492187500 -0.000031306213 -0.000031306224  1.800658598415
  0.606250000000 -0.000032233972 -0.000032233983  1.800655674050
  0.608007812500 -0.000033156123 -0.000033156135  1.800652749660
  0.609765625000 -0.000034072605 -0.000034072617  1.800649825244
  0.611523437500 -0.000034983353 -0.000034983365  1.800646900801
  0.613281250000 -0.000035888306 -0.000035888319  1.800643976333
  0.615039062500 -0.000036787401 -0.000036787413  1.800641051839
  0.616796875000 -0.000037680575 -0.000037680587  1.800638127319
  0.618554687500 -0.000038567766 -0.000038567779  1.800635202774
  0.620312500000 -0.000039448913 -0.000039448926  1.800632278202
  0.622070312500 -0.000040323954 -0.000040323968  1.800629353605
  0.623828125000 -0.000041192828 -0.000041192842  1.800626428982
  0.625585937500 -0.000042055474 -0.000042055488  1.800623504333
  0.627343750000 -0.000042911831 -0.000042911845  1.800620579658
  0.629101562500 -0.000043761838 -0.000043761852  1.800617654958
  0.630859375000 -0.000044605436 -0.000044605450  1.800614730232
  0.632617187500 -0.000045442563 -0.000045442578  1.800611805481
  0.634375000000 -0.000046273161 -0.000046273176  1.800608880703
  0.636132812500 -0.000047097170 -0.000047097185  1.800605955900
