radius      S_expected         S_actual            Error 
  0.100000000000  0.000000000000  0.000000000000  0.010000000149
  0.103515625000  0.023463011804  0.023432284388  0.000030727416
  0.107031250000  0.046742691465  0.046711964049  0.000030727416
  0.110546875000  0.069839030781  0.069808303365  0.000030727416
  0.114062500000  0.092752021550  0.092721294135  0.000030727416
  0.117578125000  0.115481655572  0.115450928157  0.000030727416
  0.121093750000  0.138027924646  0.137997197230  0.000030727416
  0.124609375000  0.160390820570  0.160360093155  0.000030727416
  0.128125000000  0.182570335147  0.182539607731  0.000030727416
  0.131640625000  0.204566460175  0.204535732760  0.000030727416
  0.135156250000  0.226379187457  0.226348460041  0.000030727416
  0.138671875000  0.248008508794  0.247977781378  0.000030727416
  0.142187500000  0.269454415987  0.269423688572  0.000030727416
  0.145703125000  0.290716900840  0.290686173425  0.000030727416
  0.149218750000  0.311795955155  0.311765227740  0.000030727416
  0.152734375000  0.332691570736  0.332660843321  0.000030727416
  0.156250000000  0.353403739387  0.353373011971  0.000030727416
  0.159765625000  0.373932452912  0.373901725496  0.000030727416
  0.163281250000  0.394277703115  0.394246975699  0.000030727416
  0.166796875000  0.414439481803  0.414408754387  0.000030727416
  0.170312500000  0.434417780780  0.434387053364  0.000030727416
  0.173828125000  0.454212591854  0.454181864438  0.000030727416
  0.177343750000  0.473823906830  0.473793179414  0.000030727416
  0.180859375000  0.493251717517  0.493220990101  0.000030727416
  0.184375000000  0.512496015721  0.512465288306  0.000030727416
  0.187890625000  0.531556793252  0.531526065836  0.000030727416
  0.191406250000  0.550434041918  0.550403314502  0.000030727416
  0.194921875000  0.569127753527  0.569097026111  0.000030727416
  0.198437500000  0.587637919890  0.587607192474  0.000030727416
  0.201953125000  0.605964532817  0.605933805401  0.000030727416
  0.205468750000  0.624107584119  0.624076856703  0.000030727416
  0.208984375000  0.642067065606  0.642036338190  0.000030727416
  0.212500000000  0.659842969091  0.659812241675  0.000030727416
  0.216015625000  0.677435286385  0.677404558969  0.000030727416
  0.219531250000  0.694844009301  0.694813281886  0.000030727416
  0.223046875000  0.712069129654  0.712038402238  0.000030727416
  0.226562500000  0.729110639255  0.729079911839  0.000030727416
  0.230078125000  0.745968529920  0.745937802504  0.000030727416
  0.233593750000  0.762642793463  0.762612066048  0.000030727416
  0.237109375000  0.779133421700  0.779102694285  0.000030727416
  0.240625000000  0.795440406446  0.795409679031  0.000030727416
  0.244140625000  0.811563739518  0.811533012103  0.000030727416
  0.247656250000  0.827503412733  0.827472685317  0.000030727416
  0.251171875000  0.843259417907  0.843228690492  0.000030727416
  0.254687500000  0.858831746860  0.858801019444  0.000030727416
  0.258203125000  0.874220391408  0.874189663992  0.000030727416
  0.261718750000  0.889425343372  0.889394615956  0.000030727416
  0.265234375000  0.904446594571  0.904415867155  0.000030727416
  0.268750000000  0.919284136824  0.919253409409  0.000030727416
  0.272265625000  0.933937961953  0.933907234537  0.000030727416
  0.275781250000  0.948408061779  0.948377334363  0.000030727416
  0.279296875000  0.962694428123  0.962663700707  0.000030727416
  0.282812500000  0.976797052807  0.976766325391  0.000030727416
  0.286328125000  0.990715927655  0.990685200239  0.000030727416
  0.289843750000  1.004451044489  1.004420317073  0.000030727416
  0.293359375000  1.018002395134  1.017971667718  0.000030727416
  0.296875000000  1.031369971414  1.031339243998  0.000030727416
  0.300390625000  1.044553765154  1.044523037738  0.000030727416
  0.303906250000  1.057553768179  1.057523040763  0.000030727416
  0.307421875000  1.070369972316  1.070339244900  0.000030727416
  0.310937500000  1.083002369392  1.082971641976  0.000030727416
  0.314453125000  1.095450951233  1.095420223817  0.000030727416
  0.317968750000  1.107715709667  1.107684982252  0.000030727416
  0.321484375000  1.119796636524  1.119765909108  0.000030727416
  0.325000000000  1.131693723631  1.131662996216  0.000030727416
  0.328515625000  1.143406962819  1.143376235403  0.000030727416
  0.332031250000  1.154936345917  1.154905618502  0.000030727416
  0.335546875000  1.166281864757  1.166251137341  0.000030727416
  0.339062500000  1.177443511169  1.177412783754  0.000030727416
  0.342578125000  1.188421276986  1.188390549570  0.000030727416
  0.346093750000  1.199215154040  1.199184426624  0.000030727416
  0.349609375000  1.209825134163  1.209794406747  0.000030727416
  0.353125000000  1.220251209190  1.220220481775  0.000030727416
  0.356640625000  1.230493370955  1.230462643540  0.000030727416
  0.360156250000  1.240551611293  1.240520883877  0.000030727416
  0.363671875000  1.250425922039  1.250395194623  0.000030727416
  0.367187500000  1.260116295029  1.260085567614  0.000030727416
  0.370703125000  1.269622722100  1.269591994684  0.000030727416
  0.374218750000  1.278945195089  1.278914467674  0.000030727416
  0.377734375000  1.288083705834  1.288052978418  0.000030727416
  0.381250000000  1.297038246173  1.297007518758  0.000030727416
  0.384765625000  1.305808807946  1.305778080531  0.000030727416
  0.388281250000  1.314395382992  1.314364655576  0.000030727416
  0.391796875000  1.322797963151  1.322767235736  0.000030727416
  0.395312500000  1.331016540265  1.330985812849  0.000030727416
  0.398828125000  1.339051106175  1.339020378759  0.000030727416
  0.402343750000  1.346901652722  1.346870925307  0.000030727416
  0.405859375000  1.354568171751  1.354537444335  0.000030727416
  0.409375000000  1.362050655103  1.362019927688  0.000030727416
  0.412890625000  1.369349094624  1.369318367209  0.000030727416
  0.416406250000  1.376463482158  1.376432754743  0.000030727416
  0.419921875000  1.383393809550  1.383363082135  0.000030727416
  0.423437500000  1.390140068647  1.390109341231  0.000030727416
  0.426953125000  1.396702251294  1.396671523878  0.000030727416
  0.430468750000  1.403080349339  1.403049621923  0.000030727416
  0.433984375000  1.409274354629  1.409243627214  0.000030727416
  0.437500000000  1.415284259014  1.415253531599  0.000030727416
  0.441015625000  1.421110054343  1.421079326927  0.000030727416
  0.444531250000  1.426751732465  1.426721005049  0.000030727416
  0.448046875000  1.432209285230  1.432178557814  0.000030727416
  0.451562500000  1.437482704490  1.437451977074  0.000030727416
  0.455078125000  1.442571982097  1.442541254681  0.000030727416
  0.458593750000  1.447477109902  1.447446382486  0.000030727416
  0.462109375000  1.452198079759  1.452167352344  0.000030727416
  0.465625000000  1.456734883523  1.456704156107  0.000030727416
  0.469140625000  1.461087513046  1.461056785630  0.000030727416
  0.472656250000  1.465255960184  1.465225232768  0.000030727416
  0.476171875000  1.469240216793  1.469209489377  0.000030727416
  0.479687500000  1.473040274729  1.473009547314  0.000030727416
  0.483203125000  1.476656125850  1.476625398434  0.000030727416
  0.486718750000  1.480087762012  1.480057034597  0.000030727416
  0.490234375000  1.483335175075  1.483304447660  0.000030727416
  0.493750000000  1.486398356898  1.486367629482  0.000030727416
  0.497265625000  1.489277299339  1.489246571924  0.000030727416
  0.500781250000  1.491971994261  1.491941266845  0.000030727416
  0.504296875000  1.494482433523  1.494451706107  0.000030727416
  0.507812500000  1.496808608988  1.496777881572  0.000030727416
  0.511328125000  1.498950512517  1.498919785102  0.000030727416
  0.514843750000  1.500908135976  1.500877408560  0.000030727416
  0.518359375000  1.502681471226  1.502650743810  0.000030727416
  0.521875000000  1.504270510133  1.504239782718  0.000030727416
  0.525390625000  1.505675244563  1.505644517147  0.000030727416
  0.528906250000  1.506895666380  1.506864938965  0.000030727416
  0.532421875000  1.507931767453  1.507901040037  0.000030727416
  0.535937500000  1.508783539647  1.508752812231  0.000030727416
  0.539453125000  1.509450974832  1.509420247416  0.000030727416
  0.542968750000  1.509934064875  1.509903337460  0.000030727416
  0.546484375000  1.510232801648  1.510202074232  0.000030727416
  0.550000000000  1.510347177019  1.510316449603  0.000030727416
  0.553515625000  1.510277182860  1.510246455444  0.000030727416
  0.557031250000  1.510022811042  1.509992083626  0.000030727416
  0.560546875000  1.509584053438  1.509553326022  0.000030727416
  0.564062500000  1.508960901920  1.508930174505  0.000030727416
  0.567578125000  1.508153348364  1.508122620948  0.000030727416
  0.571093750000  1.507161384643  1.507130657227  0.000030727416
  0.574609375000  1.505985002632  1.505954275216  0.000030727416
  0.578125000000  1.504624194208  1.504593466792  0.000030727416
  0.581640625000  1.503078951247  1.503048223831  0.000030727416
  0.585156250000  1.501349265626  1.501318538211  0.000030727416
  0.588671875000  1.499435129225  1.499404401809  0.000030727416
  0.592187500000  1.497336533922  1.497305806506  0.000030727416
  0.595703125000  1.495053471596  1.495022744180  0.000030727416
  0.599218750000  1.492585934128  1.492555206712  0.000030727416
  0.602734375000  1.489933913399  1.489903185983  0.000030727416
  0.606250000000  1.487097401291  1.487066673875  0.000030727416
  0.609765625000  1.484076389687  1.484045662271  0.000030727416
  0.613281250000  1.480870870470  1.480840143054  0.000030727416
  0.616796875000  1.477480835525  1.477450108109  0.000030727416
  0.620312500000  1.473906276735  1.473875549320  0.000030727416
  0.623828125000  1.470147185988  1.470116458572  0.000030727416
  0.627343750000  1.466203555169  1.466172827753  0.000030727416
  0.630859375000  1.462075376166  1.462044648750  0.000030727416
  0.634375000000  1.457762640866  1.457731913450  0.000030727416
  0.637890625000  1.453265341158  1.453234613743  0.000030727416
  0.641406250000  1.448583468933  1.448552741517  0.000030727416
  0.644921875000  1.443717016079  1.443686288663  0.000030727416
  0.648437500000  1.438665974489  1.438635247073  0.000030727416
  0.651953125000  1.433430336053  1.433399608637  0.000030727416
  0.655468750000  1.428010092665  1.427979365249  0.000030727416
  0.658984375000  1.422405236218  1.422374508802  0.000030727416
  0.662500000000  1.416615758606  1.416585031191  0.000030727416
  0.666015625000  1.410641651724  1.410610924309  0.000030727416
  0.669531250000  1.404482907468  1.404452180053  0.000030727416
  0.673046875000  1.398139517735  1.398108790319  0.000030727416
  0.676562500000  1.391611474420  1.391580747005  0.000030727416
  0.680078125000  1.384898769424  1.384868042008  0.000030727416
  0.683593750000  1.378001394644  1.377970667228  0.000030727416
  0.687109375000  1.370919341981  1.370888614565  0.000030727416
  0.690625000000  1.363652603334  1.363621875918  0.000030727416
  0.694140625000  1.356201170605  1.356170443189  0.000030727416
  0.697656250000  1.348565035696  1.348534308281  0.000030727416
  0.701171875000  1.340744190511  1.340713463095  0.000030727416
  0.704687500000  1.332738626952  1.332707899537  0.000030727416
  0.708203125000  1.324548336925  1.324517609509  0.000030727416
  0.711718750000  1.316173312334  1.316142584918  0.000030727416
  0.715234375000  1.307613545086  1.307582817670  0.000030727416
  0.718750000000  1.298869027087  1.298838299672  0.000030727416
  0.722265625000  1.289939750246  1.289909022830  0.000030727416
  0.725781250000  1.280825706471  1.280794979055  0.000030727416
  0.729296875000  1.271526887672  1.271496160256  0.000030727416
  0.732812500000  1.262043285758  1.262012558342  0.000030727416
  0.736328125000  1.252374892641  1.252344165225  0.000030727416
  0.739843750000  1.242521700232  1.242490972817  0.000030727416
  0.743359375000  1.232483700445  1.232452973030  0.000030727416
  0.746875000000  1.222260885193  1.222230157777  0.000030727416
  0.750390625000  1.211853246390  1.211822518974  0.000030727416
  0.753906250000  1.201260775952  1.201230048536  0.000030727416
  0.757421875000  1.190483465794  1.190452738378  0.000030727416
  0.760937500000  1.179521307834  1.179490580418  0.000030727416
  0.764453125000  1.168374293989  1.168343566573  0.000030727416
  0.767968750000  1.157042416177  1.157011688762  0.000030727416
  0.771484375000  1.145525666319  1.145494938904  0.000030727416
  0.775000000000  1.133824036335  1.133793308919  0.000030727416
  0.778515625000  1.121937518145  1.121906790730  0.000030727416
  0.782031250000  1.109866103672  1.109835376257  0.000030727416
  0.785546875000  1.097609784839  1.097579057423  0.000030727416
  0.789062500000  1.085168553569  1.085137826153  0.000030727416
  0.792578125000  1.072542401786  1.072511674371  0.000030727416
  0.796093750000  1.059731321417  1.059700594001  0.000030727416
  0.799609375000  1.046735304387  1.046704576972  0.000030727416
  0.803125000000  1.033554342624  1.033523615209  0.000030727416
  0.806640625000  1.020188428056  1.020157700641  0.000030727416
  0.810156250000  1.006637552612  1.006606825196  0.000030727416
  0.813671875000  0.992901708221  0.992870980805  0.000030727416
  0.817187500000  0.978980886813  0.978950159398  0.000030727416
  0.820703125000  0.964875080322  0.964844352906  0.000030727416
  0.824218750000  0.950584280678  0.950553553263  0.000030727416
  0.827734375000  0.936108479816  0.936077752400  0.000030727416
  0.831250000000  0.921447669669  0.921416942254  0.000030727416
  0.834765625000  0.906601842173  0.906571114757  0.000030727416
  0.838281250000  0.891570989263  0.891540261847  0.000030727416
  0.841796875000  0.876355102877  0.876324375461  0.000030727416
  0.845312500000  0.860954174951  0.860923447535  0.000030727416
  0.848828125000  0.845368197425  0.845337470009  0.000030727416
  0.852343750000  0.829597162238  0.829566434822  0.000030727416
  0.855859375000  0.813641061331  0.813610333915  0.000030727416
  0.859375000000  0.797499886644  0.797469159229  0.000030727416
  0.862890625000  0.781173630121  0.781142902705  0.000030727416
  0.866406250000  0.764662283704  0.764631556288  0.000030727416
  0.869921875000  0.747965839337  0.747935111921  0.000030727416
  0.873437500000  0.731084288965  0.731053561550  0.000030727416
  0.876953125000  0.714017624535  0.713986897119  0.000030727416
  0.880468750000  0.696765837992  0.696735110576  0.000030727416
  0.883984375000  0.679328921284  0.679298193869  0.000030727416
  0.887500000000  0.661706866361  0.661676138945  0.000030727416
  0.891015625000  0.643899665171  0.643868937755  0.000030727416
  0.894531250000  0.625907309665  0.625876582249  0.000030727416
  0.898046875000  0.607729791794  0.607699064379  0.000030727416
  0.901562500000  0.589367103511  0.589336376096  0.000030727416
  0.905078125000  0.570819236769  0.570788509354  0.000030727416
  0.908593750000  0.552086183522  0.552055456107  0.000030727416
  0.912109375000  0.533167935725  0.533137208310  0.000030727416
  0.915625000000  0.514064485334  0.514033757919  0.000030727416
  0.919140625000  0.494775824306  0.494745096891  0.000030727416
  0.922656250000  0.475301944599  0.475271217184  0.000030727416
  0.926171875000  0.455642838172  0.455612110757  0.000030727416
  0.929687500000  0.435798496984  0.435767769569  0.000030727416
  0.933203125000  0.415768912997  0.415738185581  0.000030727416
  0.936718750000  0.395554078171  0.395523350755  0.000030727416
  0.940234375000  0.375153984470  0.375123257054  0.000030727416
  0.943750000000  0.354568623857  0.354537896441  0.000030727416
  0.947265625000  0.333797988296  0.333767260880  0.000030727416
  0.950781250000  0.312842069753  0.312811342338  0.000030727416
  0.954296875000  0.291700860195  0.291670132779  0.000030727416
  0.957812500000  0.270374351589  0.270343624173  0.000030727416
  0.961328125000  0.248862535902  0.248831808487  0.000030727416
  0.964843750000  0.227165405106  0.227134677690  0.000030727416
  0.968359375000  0.205282951169  0.205252223753  0.000030727416
  0.971875000000  0.183215166063  0.183184438647  0.000030727416
  0.975390625000  0.160962041760  0.160931314344  0.000030727416
  0.978906250000  0.138523570233  0.138492842818  0.000030727416
  0.982421875000  0.115899743457  0.115869016042  0.000030727416
  0.985937500000  0.093090553407  0.093059825991  0.000030727416
  0.989453125000  0.070095992059  0.070065264643  0.000030727416
  0.992968750000  0.046916051389  0.046885323973  0.000030727416
  0.996484375000  0.023550723377  0.023519995961  0.000030727416
  1.000000000000 -0.000000000000  0.000000000000  0.100000001490
