radius      S_expected         S_actual            Error 
  0.100000000000 -0.000000000000  0.000000000000  0.000000000000
  0.101744186047  0.005047993376  0.005046806716  0.000184752047
  0.103488372093  0.009913991722  0.009912805063  0.000366130824
  0.105232558140  0.014605270400  0.014604083741  0.000544159640
  0.106976744186  0.019128687874  0.019127501214  0.000718853900
  0.108720930233  0.023490715934  0.023489529274  0.000890229760
  0.110465116279  0.027697467280  0.027696280621  0.001058303499
  0.112209302326  0.031754720739  0.031753534080  0.001223091430
  0.113953488372  0.035667944350  0.035666757691  0.001384609878
  0.115697674419  0.039442316531  0.039441129873  0.001542875168
  0.117441860465  0.043082745505  0.043081558847  0.001697903627
  0.119186046512  0.046593887161  0.046592700502  0.001849711580
  0.120930232558  0.049980161490  0.049978974832  0.001998315351
  0.122674418605  0.053245767736  0.053244581078  0.002143731259
  0.124418604651  0.056394698368  0.056393511710  0.002285975624
  0.126162790698  0.059430751990  0.059429565332  0.002425064759
  0.127906976744  0.062357545277  0.062356358620  0.002561014978
  0.129651162791  0.065178524031  0.065177337373  0.002693842589
  0.131395348837  0.067896973416  0.067895786759  0.002823563898
  0.133139534884  0.070516027464  0.070514840807  0.002950195207
  0.134883720930  0.073038677896  0.073037491239  0.003073752816
  0.136627906977  0.075467782326  0.075466595669  0.003194253021
  0.138372093023  0.077806071889  0.077804885232  0.003311712115
  0.140116279070  0.080056158350  0.080054971694  0.003426146386
  0.141860465116  0.082220540730  0.082219354075  0.003537572121
  0.143604651163  0.084301611486  0.084300424831  0.003646005601
  0.145348837209  0.086301662283  0.086300475628  0.003751463106
  0.147093023256  0.088222889388  0.088221702733  0.003853960911
  0.148837209302  0.090067398716  0.090066212062  0.003953515286
  0.150581395349  0.091837210554  0.091836023900  0.004050142501
  0.152325581395  0.093534263986  0.093533077332  0.004143858819
  0.154069767442  0.095160421039  0.095159234385  0.004234680501
  0.155813953488  0.096717470579  0.096716283926  0.004322623803
  0.157558139535  0.098207131964  0.098205945312  0.004407704978
  0.159302325581  0.099631058480  0.099629871828  0.004489940275
  0.161046511628  0.100990840565  0.100989653913  0.004569345940
  0.162790697674  0.102288008853  0.102286822202  0.004645938213
  0.164534883721  0.103524037034  0.103522850383  0.004719733331
  0.166279069767  0.104700344544  0.104699157893  0.004790747529
  0.168023255814  0.105818299110  0.105817112460  0.004858997034
  0.169767441860  0.106879219149  0.106878032500  0.004924498071
  0.171511627907  0.107884376025  0.107883189376  0.004987266862
  0.173255813953  0.108834996189  0.108833809541  0.005047319624
  0.175000000000  0.109732263198  0.109731076551  0.005104672568
  0.176744186047  0.110577319627  0.110576132980  0.005159341902
  0.178488372093  0.111371268869  0.111370082223  0.005211343832
  0.180232558140  0.112115176854  0.112113990208  0.005260694555
  0.181976744186  0.112810073662  0.112808887017  0.005307410268
  0.183720930233  0.113456955061  0.113455768417  0.005351507160
  0.185465116279  0.114056783963  0.114055597319  0.005393001419
  0.187209302326  0.114610491804  0.114609305161  0.005431909226
  0.188953488372  0.115118979854  0.115117793212  0.005468246757
  0.190697674419  0.115583120462  0.115581933821  0.005502030186
  0.192441860465  0.116003758239  0.116002571599  0.005533275680
  0.194186046512  0.116381711181  0.116380524542  0.005561999403
  0.195930232558  0.116717771737  0.116716585098  0.005588217513
  0.197674418605  0.117012707825  0.117011521187  0.005611946163
  0.199418604651  0.117267263804  0.117266077167  0.005633201504
  0.201162790698  0.117482161390  0.117480974754  0.005651999677
  0.202906976744  0.117658100536  0.117656913901  0.005668356824
  0.204651162791  0.117795760268  0.117794573635  0.005682289078
  0.206395348837  0.117895799485  0.117894612852  0.005693812567
  0.208139534884  0.117958857714  0.117957671083  0.005702943418
  0.209883720930  0.117985555844  0.117984369214  0.005709697747
  0.211627906977  0.117976496810  0.117975310181  0.005714091670
  0.213372093023  0.117932266261  0.117931079633  0.005716141296
  0.215116279070  0.117853433189  0.117852246563  0.005715862727
  0.216860465116  0.117740550536  0.117739363912  0.005713272063
  0.218604651163  0.117594155768  0.117592969145  0.005708385396
  0.220348837209  0.117414771429  0.117413584807  0.005701218815
  0.222093023256  0.117202905669  0.117201719049  0.005691788401
  0.223837209302  0.116959052752  0.116957866134  0.005680110231
  0.225581395349  0.116683693536  0.116682506919  0.005666200378
  0.227325581395  0.116377295940  0.116376109325  0.005650074906
  0.229069767442  0.116040315387  0.116039128775  0.005631749877
  0.230813953488  0.115673195231  0.115672008620  0.005611241345
  0.232558139535  0.115276367162  0.115275180554  0.005588565360
  0.234302325581  0.114850251601  0.114849064995  0.005563737964
  0.236046511628  0.114395258075  0.114394071471  0.005536775195
  0.237790697674  0.113911785575  0.113910598973  0.005507693087
  0.239534883721  0.113400222902  0.113399036303  0.005476507663
  0.241279069767  0.112860949003  0.112859762406  0.005443234946
  0.243023255814  0.112294333285  0.112293146692  0.005407890949
  0.244767441860  0.111700735926  0.111699549335  0.005370491680
  0.246511627907  0.111080508165  0.111079321577  0.005331053142
  0.248255813953  0.110433992589  0.110432806003  0.005289591331
  0.250000000000  0.109761523401  0.109760336819  0.005246122237
  0.251744186047  0.109063426687  0.109062240108  0.005200661845
  0.253488372093  0.108340020664  0.108338834088  0.005153226132
  0.255232558140  0.107591615924  0.107590429351  0.005103831069
  0.256976744186  0.106818515666  0.106817329097  0.005052492623
  0.258720930233  0.106021015922  0.106019829356  0.004999226751
  0.260465116279  0.105199405774  0.105198219212  0.004944049408
  0.262209302326  0.104353967560  0.104352781003  0.004886976538
  0.263953488372  0.103484977079  0.103483790525  0.004828024081
  0.265697674419  0.102592703778  0.102591517229  0.004767207971
  0.267441860465  0.101677410947  0.101676224402  0.004704544135
  0.269186046512  0.100739355891  0.100738169351  0.004640048491
  0.270930232558  0.099778790110  0.099777603575  0.004573736954
  0.272674418605  0.098795959462  0.098794772933  0.004505625431
  0.274418604651  0.097791104329  0.097789917804  0.004435729820
  0.276162790698  0.096764459767  0.096763273248  0.004364066015
  0.277906976744  0.095716255663  0.095715069150  0.004290649903
  0.279651162791  0.094646716876  0.094645530369  0.004215497363
  0.281395348837  0.093556063381  0.093554876880  0.004138624266
  0.283139534884  0.092444510401  0.092443323906  0.004060046479
  0.284883720930  0.091312268540  0.091311082051  0.003979779860
  0.286627906977  0.090159543911  0.090158357430  0.003897840260
  0.288372093023  0.088986538258  0.088985351783  0.003814243523
  0.290116279070  0.087793449071  0.087792262604  0.003729005487
  0.291860465116  0.086580469706  0.086579283247  0.003642141980
  0.293604651163  0.085347789493  0.085346603042  0.003553668826
  0.295348837209  0.084095593843  0.084094407401  0.003463601840
  0.297093023256  0.082824064353  0.082822877919  0.003371956829
  0.298837209302  0.081533378903  0.081532192479  0.003278749594
  0.300581395349  0.080223711762  0.080222525346  0.003183995928
  0.302325581395  0.078895233670  0.078894047264  0.003087711615
  0.304069767442  0.077548111939  0.077546925543  0.002989912435
  0.305813953488  0.076182510537  0.076181324152  0.002890614157
  0.307558139535  0.074798590175  0.074797403801  0.002789832544
  0.309302325581  0.073396508389  0.073395322026  0.002687583351
  0.311046511628  0.071976419619  0.071975233268  0.002583882325
  0.312790697674  0.070538475292  0.070537288953  0.002478745206
  0.314534883721  0.069082823890  0.069081637565  0.002372187725
  0.316279069767  0.067609611032  0.067608424720  0.002264225606
  0.318023255814  0.066118979537  0.066117793239  0.002154874564
  0.319767441860  0.064611069499  0.064609883215  0.002044150308
  0.321511627907  0.063086018349  0.063084832080  0.001932068538
  0.323255813953  0.061543960923  0.061542774670  0.001818644945
  0.325000000000  0.059985029525  0.059983843288  0.001703895214
  0.326744186047  0.058409353988  0.058408167767  0.001587835021
  0.328488372093  0.056817061730  0.056815875527  0.001470480033
  0.330232558140  0.055208277816  0.055207091631  0.001351845911
  0.331976744186  0.053583125013  0.053581938847  0.001231948307
  0.333720930233  0.051941723843  0.051940537697  0.001110802866
  0.335465116279  0.050284192637  0.050283006511  0.000988425226
  0.337209302326  0.048610647585  0.048609461480  0.000864831020
  0.338953488372  0.046921202788  0.046920016706  0.000740035876
  0.340697674419  0.045215970305  0.045214784246  0.000614055425
  0.342441860465  0.043495060201  0.043493874165  0.000486905312
  0.344186046512  0.041758580591  0.041757394580  0.000358601242
  0.345930232558  0.040006637688  0.040005451703  0.000229159170
  0.347674418605  0.038239335842  0.038238149884  0.000098597035
  0.349418604651  0.036456777588  0.036455591658  0.000033105001
  0.351162790698  0.034659063681  0.034657877779  0.000165853546
  0.352906976744  0.032846293139  0.032845107267  0.000299693558
  0.354651162791  0.031018563282  0.031017377442  0.000434595551
  0.356395348837  0.029175969771  0.029174783963  0.000570543172
  0.358139534884  0.027318606640  0.027317420866  0.000707520706
  0.359883720930  0.025446566338  0.025445380599  0.000845512572
  0.361627906977  0.023559939760  0.023558754058  0.000984503236
  0.363372093023  0.021658816283  0.021657630618  0.001124477191
  0.365116279070  0.019743283797  0.019742098172  0.001265418942
  0.366860465116  0.017813428741  0.017812243157  0.001407313012
  0.368604651163  0.015869336130  0.015868150589  0.001550143931
  0.370348837209  0.013911089591  0.013909904094  0.001693896241
  0.372093023256  0.011938771387  0.011937585936  0.001838554496
  0.373837209302  0.009952462451  0.009951277048  0.001984103258
  0.375581395349  0.007952242413  0.007951057060  0.002130527099
  0.377325581395  0.005938189626  0.005937004324  0.002277810600
  0.379069767442  0.003910381195  0.003909195948  0.002425938354
  0.380813953488  0.001868893006  0.001867707814  0.002574894962
  0.382558139535 -0.000186200255 -0.000187385388  0.002724665036
  0.384302325581 -0.002254825070 -0.002256010143  0.002875233196
  0.386046511628 -0.004336909069 -0.004338094079  0.003026584073
  0.387790697674 -0.006432381003 -0.006433565948  0.003178702309
  0.389534883721 -0.008541170721 -0.008542355598  0.003331572553
  0.391279069767 -0.010663209150 -0.010664393957  0.003485179467
  0.393023255814 -0.012798428268 -0.012799613002  0.003639507721
  0.394767441860 -0.014946761086 -0.014947945743  0.003794541996
  0.396511627907 -0.017108141622 -0.017109326200  0.003950266982
  0.398255813953 -0.019282504887 -0.019283689383  0.004106667380
  0.400000000000 -0.021469786858 -0.021470971268  0.004263727901
  0.401744186047 -0.023669924461 -0.023671108781  0.004421433266
  0.403488372093 -0.025882855549 -0.025884039777  0.004579768207
  0.405232558140 -0.028108518888 -0.028109703020  0.004738717465
  0.406976744186 -0.030346854132 -0.030348038164  0.004898265793
  0.408720930233 -0.032597801808 -0.032598985736  0.005058397952
  0.410465116279 -0.034861303299 -0.034862487118  0.005219098715
  0.412209302326 -0.037137300821 -0.037138484529  0.005380352867
  0.413953488372 -0.039425737414 -0.039426921004  0.005542145200
  0.415697674419 -0.041726556915 -0.041727740385  0.005704460518
  0.417441860465 -0.044039703952 -0.044040887295  0.005867283637
  0.419186046512 -0.046365123919 -0.046366307131  0.006030599382
  0.420930232558 -0.048702762964 -0.048703946039  0.006194392590
  0.422674418605 -0.051052567972 -0.051053750906  0.006358648106
  0.424418604651 -0.053414486552 -0.053415669338  0.006523350790
  0.426162790698 -0.055788467018 -0.055789649651  0.006688485509
  0.427906976744 -0.058174458377 -0.058175640851  0.006854037142
  0.429651162791 -0.060572410313 -0.060573592621  0.007019990581
  0.431395348837 -0.062982273172 -0.062983455308  0.007186330725
  0.433139534884 -0.065403997951 -0.065405179908  0.007353042487
  0.434883720930 -0.067837536279 -0.067838718050  0.007520110791
  0.436627906977 -0.070282840408 -0.070284021986  0.007687520570
  0.438372093023 -0.072739863195 -0.072741044573  0.007855256769
  0.440116279070 -0.075208558095 -0.075209739263  0.008023304346
  0.441860465116 -0.077688879139 -0.077690060090  0.008191648267
  0.443604651163 -0.080180780929 -0.080181961654  0.008360273511
  0.445348837209 -0.082684218621 -0.082685399111  0.008529165069
  0.447093023256 -0.085199147913 -0.085200328159  0.008698307941
  0.448837209302 -0.087725525032 -0.087726705026  0.008867687141
  0.450581395349 -0.090263306726 -0.090264486455  0.009037287693
  0.452325581395 -0.092812450242 -0.092813629698  0.009207094632
  0.454069767442 -0.095372913326 -0.095374092496  0.009377093004
  0.455813953488 -0.097944654199 -0.097945833074  0.009547267869
  0.457558139535 -0.100527631556 -0.100528810123  0.009717604297
  0.459302325581 -0.103121804546 -0.103122982793  0.009888087368
  0.461046511628 -0.105727132764 -0.105728310679  0.010058702176
  0.462790697674 -0.108343576240 -0.108344753808  0.010229433827
  0.464534883721 -0.110971095422 -0.110972272632  0.010400267436
  0.466279069767 -0.113609651173 -0.113610828009  0.010571188131
  0.468023255814 -0.116259204753 -0.116260381201  0.010742181054
  0.469767441860 -0.118919717809 -0.118920893853  0.010913231355
  0.471511627907 -0.121591152364 -0.121592327989  0.011084324197
  0.473255813953 -0.124273470807 -0.124274645996  0.011255444758
  0.475000000000 -0.126966635879 -0.126967810614  0.011426578224
  0.476744186047 -0.129670610663 -0.129671784926  0.011597709794
  0.478488372093 -0.132385358572 -0.132386532345  0.011768824680
  0.480232558140 -0.135110843339 -0.135112016603  0.011939908105
  0.481976744186 -0.137847029004 -0.137848201739  0.012110945305
  0.483720930233 -0.140593879904 -0.140595052088  0.012281921526
  0.485465116279 -0.143351360658 -0.143352532270  0.012452822030
  0.487209302326 -0.146119436161 -0.146120607178  0.012623632087
  0.488953488372 -0.148898071567 -0.148899241966  0.012794336982
  0.490697674419 -0.151687232282 -0.151688402039  0.012964922010
  0.492441860465 -0.154486883948 -0.154488053036  0.013135372481
  0.494186046512 -0.157296992434 -0.157298160827  0.013305673714
  0.495930232558 -0.160117523821 -0.160118691492  0.013475811044
  0.497674418605 -0.162948444394 -0.162949611315  0.013645769815
  0.499418604651 -0.165789720627 -0.165790886768  0.013815535385
  0.501162790698 -0.168641319170 -0.168642484500  0.013985093125
  0.502906976744 -0.171503206838 -0.171504371326  0.014154428418
  0.504651162791 -0.174375350600 -0.174376514211  0.014323526657
  0.506395348837 -0.177257717559 -0.177258880259  0.014492373252
  0.508139534884 -0.180150274949 -0.180151436702  0.014660953622
  0.509883720930 -0.183052990112 -0.183054150881  0.014829253200
  0.511627906977 -0.185965830492 -0.185966990237  0.014997257432
  0.513372093023 -0.188888763615 -0.188889922297  0.015164951775
  0.515116279070 -0.191821757081 -0.191822914658  0.015332321701
  0.516860465116 -0.194764778544 -0.194765934972  0.015499352692
  0.518604651163 -0.197717795702 -0.197718950934  0.015666030245
  0.520348837209 -0.200680776277 -0.200681930268  0.015832339869
  0.522093023256 -0.203653688006 -0.203654840706  0.015998267085
  0.523837209302 -0.206636498620 -0.206637649978  0.016163797427
  0.525581395349 -0.209629175831 -0.209630325793  0.016328916444
  0.527325581395 -0.212631687313 -0.212632835826  0.016493609695
  0.529069767442 -0.215644000690 -0.215645147695  0.016657862752
  0.530813953488 -0.218666083513 -0.218667228952  0.016821661203
  0.532558139535 -0.221697903248 -0.221699047057  0.016984990645
  0.534302325581 -0.224739427251 -0.224740569367  0.017147836691
  0.536046511628 -0.227790622758 -0.227791763114  0.017310184965
  0.537790697674 -0.230851456859 -0.230852595386  0.017472021105
  0.539534883721 -0.233921896482 -0.233923033106  0.017633330762
  0.541279069767 -0.237001908370 -0.237003043018  0.017794099599
  0.543023255814 -0.240091459064 -0.240092591656  0.017954313294
  0.544767441860 -0.243190514878 -0.243191645334  0.018113957536
  0.546511627907 -0.246299041880 -0.246300170116  0.018273018029
  0.548255813953 -0.249417005867 -0.249418131795  0.018431480489
  0.550000000000 -0.252544372344 -0.252545495872  0.018589330645
  0.551744186047 -0.255681106496 -0.255682227530  0.018746554240
  0.553488372093 -0.258827173168 -0.258828291609  0.018903137029
  0.555232558140 -0.261982536836 -0.261983652582  0.019059064782
  0.556976744186 -0.265147161581 -0.265148274526  0.019214323281
  0.558720930233 -0.268321011064 -0.268322121097  0.019368898321
  0.560465116279 -0.271504048494 -0.271505155500  0.019522775711
  0.562209302326 -0.274696236602 -0.274697340461  0.019675941274
  0.563953488372 -0.277897537609 -0.277898638197  0.019828380844
  0.565697674419 -0.281107913195 -0.281109010383  0.019980080270
  0.567441860465 -0.284327324468 -0.284328418122  0.020131025414
  0.569186046512 -0.287555731930 -0.287556821911  0.020281202153
  0.570930232558 -0.290793095442 -0.290794181603  0.020430596373
  0.572674418605 -0.294039374187 -0.294040456379  0.020579193978
  0.574418604651 -0.297294526637 -0.297295604703  0.020726980883
  0.576162790698 -0.300558510511 -0.300559584288  0.020873943018
  0.577906976744 -0.303831282737 -0.303832352055  0.021020066324
  0.579651162791 -0.307112799410 -0.307113864094  0.021165336757
  0.581395348837 -0.310403015751 -0.310404075618  0.021309740288
  0.583139534884 -0.313701886062 -0.313702940922  0.021453262898
  0.584883720930 -0.317009363679 -0.317010413334  0.021595890583
  0.586627906977 -0.320325400927 -0.320326445172  0.021737609355
  0.588372093023 -0.323649949071 -0.323650987693  0.021878405235
  0.590116279070 -0.326982958263 -0.326983991039  0.022018264261
  0.591860465116 -0.330324377490 -0.330325404190  0.022157172483
  0.593604651163 -0.333674154520 -0.333675174904  0.022295115964
  0.595348837209 -0.337032235846 -0.337033249665  0.022432080783
  0.597093023256 -0.340398566626 -0.340399573622  0.022568053031
  0.598837209302 -0.343773090622 -0.343774090525  0.022703018811
  0.600581395349 -0.347155750138 -0.347156742668  0.022836964241
  0.602325581395 -0.350546485951 -0.350547470818  0.022969875454
  0.604069767442 -0.353945237250 -0.353946214150  0.023101738595
  0.605813953488 -0.357351941555 -0.357352910177  0.023232539822
  0.607558139535 -0.360766534656 -0.360767494671  0.023362265307
  0.609302325581 -0.364188950525 -0.364189901596  0.023490901238
  0.611046511628 -0.367619121247 -0.367620063019  0.023618433813
  0.612790697674 -0.371056976930 -0.371057909039  0.023744849245
  0.614534883721 -0.374502445626 -0.374503367690  0.023870133762
  0.616279069767 -0.377955453242 -0.377956364865  0.023994273603
  0.618023255814 -0.381415923443 -0.381416824215  0.024117255022
  0.619767441860 -0.384883777565 -0.384884667058  0.024239064288
  0.621511627907 -0.388358934511 -0.388359812280  0.024359687682
  0.623255813953 -0.391841310649 -0.391842176233  0.024479111497
  0.625000000000 -0.395330819708 -0.395331672627  0.024597322043
  0.626744186047 -0.398827372667 -0.398828212422  0.024714305642
  0.628488372093 -0.402330877638 -0.402331703712  0.024830048629
  0.630232558140 -0.405841239750 -0.405842051604  0.024944537354
  0.631976744186 -0.409358361027 -0.409359158101  0.025057758179
