radius      S_expected         S_actual            Error 
  0.100000000000  0.207031273120  0.207031262997  0.346169713053
  0.106122448980  0.211006004168  0.211006006688  0.350840931749
  0.112244897959  0.213338512890  0.213338511217  0.354124454966
  0.118367346939  0.214302082822  0.214302081197  0.354934749243
  0.124489795918  0.214116337909  0.214116336339  0.353165417054
  0.130612244898  0.212959832011  0.212959830503  0.349236126633
  0.136734693878  0.210979255500  0.210979254061  0.343701158553
  0.142857142857  0.208296273769  0.208296272405  0.337066120774
  0.148979591837  0.205012678811  0.205012677527  0.329732888216
  0.155102040816  0.201214319943  0.201214318745  0.321999131297
  0.161224489796  0.196974138166  0.196974137059  0.314076135029
  0.167346938776  0.192354533672  0.192354532661  0.306109673540
  0.173469387755  0.187409231215  0.187409230303  0.298198276917
  0.179591836735  0.182184763154  0.182184762345  0.290407419275
  0.185714285714  0.176721658375  0.176721657671  0.282779848007
  0.191836734694  0.171055402778  0.171055402181  0.275342804164
  0.197959183673  0.165217220794  0.165217220305  0.268112918548
  0.204081632653  0.159234715490  0.159234715111  0.261099428643
  0.210204081633  0.153132396115  0.153132395846  0.254306187877
  0.216326530612  0.146932115387  0.146932115227  0.247732781198
  0.222448979592  0.140653433921  0.140653433869  0.241374930294
  0.228571428571  0.134313925474  0.134313925528  0.235224263349
  0.234693877551  0.127929433850  0.127929434008  0.229267429423
  0.240816326531  0.121514290072  0.121514290331  0.223484449246
  0.246938775510  0.115081496757  0.115081497113  0.217846111411
  0.253061224490  0.108642885278  0.108642885727  0.212310159447
  0.259183673469  0.102209250246  0.102209250784  0.206816016910
  0.265306122449  0.095790465008  0.095790465630  0.201277979667
  0.271428571429  0.089395581202  0.089395581901  0.195577418881
  0.277551020408  0.083032914862  0.083032915633  0.189556076163
  0.283673469388  0.076710121155  0.076710121991  0.183015796868
  0.289795918367  0.070434259465  0.070434260360  0.175735859527
  0.295918367347  0.064211850269  0.064211851215  0.167526474007
  0.302040816327  0.058048925004  0.058048925994  0.158337430753
  0.308163265306  0.051951069947  0.051951070973  0.148406504653
  0.314285714286  0.045923464967  0.045923466022  0.138321456360
  0.320408163265  0.039970917867  0.039970918942  0.128749587300
  0.326530612245  0.034097894943  0.034097896031  0.119860954400
  0.332653061224  0.028308548275  0.028308549369  0.111214426714
  0.338775510204  0.022606740211  0.022606741302  0.102500791709
  0.344897959184  0.016996065413  0.016996066493  0.094032661710
  0.351020408163  0.011479870806  0.011479871868  0.086387951468
  0.357142857143  0.006061273706  0.006061274744  0.079948990525
  0.363265306122  0.000743178371  0.000743179377  0.074794658799
  0.369387755102 -0.004471708826 -0.004471707860  0.070804082693
  0.375510204082 -0.009580865408 -0.009580864487  0.067779206162
  0.381632653061 -0.014581939850 -0.014581938981  0.065520385665
  0.387755102041 -0.019472739544 -0.019472738732  0.063858725577
  0.393877551020 -0.024251219560 -0.024251218810  0.062663439552
  0.400000000000 -0.028915472111 -0.028915471428  0.061838213420
  0.406122448980 -0.033463716641 -0.033463716028  0.061314211448
  0.412244897959 -0.037894290460 -0.037894289922  0.061043129599
  0.418367346939 -0.042205639881 -0.042205639420  0.060991481918
  0.424489795918 -0.046396311805 -0.046396311424  0.061136320100
  0.430612244898 -0.050464945707 -0.050464945407  0.061462225491
  0.436734693878 -0.054410266006 -0.054410265788  0.061959333592
  0.442857142857 -0.058231074783 -0.058231074648  0.062622184753
  0.448979591837 -0.061926244826 -0.061926244773  0.063449267801
  0.455102040816 -0.065494712990 -0.065494713018  0.064443209167
  0.461224489796 -0.068935473861 -0.068935473970  0.065611654248
  0.467346938776 -0.072247573715 -0.072247573901  0.066968995988
  0.473469387755 -0.075430104757 -0.075430105019  0.068539238674
  0.479591836735 -0.078482199660 -0.078482199993  0.070360454395
  0.485714285714 -0.081403026374 -0.081403026775  0.072491502132
  0.491836734694 -0.084191783230 -0.084191783695  0.075021923257
  0.497959183673 -0.086847694328 -0.086847694852  0.078086142375
  0.504081632653 -0.089370005213 -0.089370005790  0.081883123354
  0.510204081633 -0.091757978844 -0.091757979469  0.086702070160
  0.516326530612 -0.094010891864 -0.094010892530  0.092952733150
  0.522448979592 -0.096128031156 -0.096128031857  0.101193054980
  0.528571428571 -0.098108690717 -0.098108691447  0.112130393388
  0.534693877551 -0.099952168824 -0.099952169576  0.126528915686
  0.540816326531 -0.101657765514 -0.101657766280  0.144880323273
  0.546938775510 -0.103224780363 -0.103224781137  0.166740916190
  0.553061224490 -0.104652510581 -0.104652511354  0.190197204752
  0.559183673469 -0.105940249404 -0.105940250170  0.212497388140
  0.565306122449 -0.107087284800 -0.107087285552  0.231613070409
  0.571428571429 -0.108092898464 -0.108092899194  0.246975914074
  0.577551020408 -0.108956365115 -0.108956365816  0.259010602539
  0.583673469388 -0.109676952080 -0.109676952747  0.268466018822
  0.589795918367 -0.110253919162 -0.110253919788  0.276058818506
  0.595918367347 -0.110686518772 -0.110686519350  0.282362610463
  0.602040816327 -0.110973996331 -0.110973996855  0.287801596276
  0.608163265306 -0.111115590917 -0.111115591382  0.292676232085
  0.614285714286 -0.111110536152 -0.111110536554  0.297193657957
  0.620408163265 -0.110958061307 -0.110958061641  0.301494069587
  0.626530612245 -0.110657392616 -0.110657392877  0.305671045612
  0.632653061224 -0.110207754778 -0.110207754965  0.309786279401
  0.638775510204 -0.109608372635 -0.109608372744  0.313879860846
  0.644897959184 -0.108858472996 -0.108858473025  0.317977267913
  0.651020408163 -0.107957286603 -0.107957286551  0.322094014781
  0.657142857143 -0.106904050203 -0.106904050068  0.326238653641
  0.663265306122 -0.105698008717 -0.105698008499  0.330414608523
  0.669387755102 -0.104338417482 -0.104338417182  0.334621145714
  0.675510204082 -0.102824544539 -0.102824544158  0.338853650213
  0.681632653061 -0.101155672953 -0.101155672492  0.343103269503
  0.687755102041 -0.099331103139 -0.099331102601  0.347355894124
  0.693877551020 -0.097350155170 -0.097350154558  0.351590363536
  0.700000000000 -0.095212171060 -0.095212170377  0.355775720458
  0.706122448980 -0.092916516977 -0.092916516227  0.359867314071
  0.712244897959 -0.090462585387 -0.090462584575  0.363801645590
  0.718367346939 -0.087849797101 -0.087849796232  0.367490226434
  0.724489795918 -0.085077603208 -0.085077602287  0.370813722796
  0.730612244898 -0.082145486868 -0.082145485902  0.373619902365
  0.736734693878 -0.079052964966 -0.079052963961  0.375733200480
  0.742857142857 -0.075799589589 -0.075799588552  0.376990251163
  0.748979591837 -0.072384949332 -0.072384948270  0.377320458422
  0.755102040816 -0.068808670403 -0.068808669323  0.376876133247
  0.761224489796 -0.065070417529 -0.065070416438  0.376142744238
  0.767346938776 -0.061169894641 -0.061169893548  0.375815154586
  0.773469387755 -0.057106845340 -0.057106844252  0.376257190667
  0.779591836735 -0.052881053125 -0.052881052050  0.377024345082
  0.785714285714 -0.048492341389 -0.048492340335  0.377358619865
  0.791836734694 -0.043940573170 -0.043940572144  0.377121769235
  0.797959183673 -0.039225650661 -0.039225649672  0.376833183712
  0.804081632653 -0.034347514474 -0.034347513528  0.377081258027
  0.810204081633 -0.029306142661 -0.029306141767  0.378175016919
  0.816326530612 -0.024101549498 -0.024101548662  0.380149334689
  0.822448979592 -0.018733784024 -0.018733783253  0.382888737455
  0.828571428571 -0.013202928364 -0.013202927665  0.386229875699
  0.834693877551 -0.007509095815 -0.007509095194  0.390016284600
  0.840816326531 -0.001652428731 -0.001652428193  0.394119056540
  0.846938775510  0.004366903805  0.004366904255  0.398439906938
  0.853061224490  0.010548708492  0.010548708848  0.402907163349
  0.859183673469  0.016892770499  0.016892770758  0.407469962682
  0.865306122449  0.023398856329  0.023398856487  0.412092857190
  0.871428571429  0.030066716809  0.030066716863  0.416751521981
  0.877551020408  0.036896090231  0.036896090179  0.421429623228
  0.883673469388  0.043886705594  0.043886705433  0.426116695211
  0.889795918367  0.051038285945  0.051038285676  0.430806847570
  0.895918367347  0.058350551800  0.058350551421  0.435498170262
  0.902040816327  0.065823224613  0.065823224124  0.440192776944
  0.908163265306  0.073456030292  0.073456029695  0.444897513944
  0.914285714286  0.081248702727  0.081248702023  0.449625462713
  0.920408163265  0.089200987314  0.089200986505  0.454398487027
  0.926530612245  0.097312644460  0.097312643548  0.459251232987
  0.932653061224  0.105583453043  0.105583452032  0.464237188146
  0.938775510204  0.114013213809  0.114013212702  0.469437639764
  0.944897959184  0.122601752690  0.122601751492  0.474974596337
  0.951020408163  0.131348924021  0.131348922737  0.481028818068
  0.957142857143  0.140254613636  0.140254612271  0.487863728936
  0.963265306122  0.149318741835  0.149318740396  0.495854491781
  0.969387755102  0.158541266197  0.158541264689  0.505517450315
  0.975510204082  0.167922184224  0.167922182654  0.517524625798
  0.981632653061  0.177461535812  0.177461534187  0.532660460769
  0.987755102041  0.187159405524  0.187159403851  0.551617150110
  0.993877551020  0.197015924661  0.197015927182  0.574477344504
  1.000000000000  0.207031273120  0.207031262997  0.600000000000
