radius      S_expected         S_actual            Error 
  0.100000000000  0.207031273120  0.207031273116  0.537163658118
  0.100878906250  0.207715012433  0.207715012434  0.539164444545
  0.101757812500  0.208359089214  0.208359089213  0.541156445344
  0.102636718750  0.208964584959  0.208964584959  0.543140723226
  0.103515625000  0.209532544471  0.209532544470  0.545118311771
  0.104394531250  0.210063977405  0.210063977405  0.547090186823
  0.105273437500  0.210559859744  0.210559859744  0.549057240909
  0.106152343750  0.211021135185  0.211021135185  0.551020261665
  0.107031250000  0.211448716471  0.211448716471  0.552979914980
  0.107910156250  0.211843486651  0.211843486651  0.554936733257
  0.108789062500  0.212206300281  0.212206300280  0.556891108894
  0.109667968750  0.212537984565  0.212537984565  0.558843292815
  0.110546875000  0.212839340448  0.212839340447  0.560793397611
  0.111425781250  0.213111143645  0.213111143644  0.562741404716
  0.112304687500  0.213354145636  0.213354145635  0.564687174872
  0.113183593750  0.213569074607  0.213569074606  0.566630461115
  0.114062500000  0.213756636343  0.213756636342  0.568570923484
  0.114941406250  0.213917515093  0.213917515092  0.570508144699
  0.115820312500  0.214052374382  0.214052374381  0.572441646144
  0.116699218750  0.214161857795  0.214161857794  0.574370903552
  0.117578125000  0.214246589723  0.214246589723  0.576295361943
  0.118457031250  0.214307176077  0.214307176076  0.578214449439
  0.119335937500  0.214344204965  0.214344204964  0.580127589707
  0.120214843750  0.214358247349  0.214358247348  0.582034212882
  0.121093750000  0.214349857665  0.214349857665  0.583933764888
  0.121972656250  0.214319574421  0.214319574420  0.585825715158
  0.122851562500  0.214267920765  0.214267920764  0.587709562825
  0.123730468750  0.214195405034  0.214195405033  0.589584841442
  0.124609375000  0.214102521275  0.214102521274  0.591451122399
  0.125488281250  0.213989749748  0.213989749747  0.593308017139
  0.126367187500  0.213857557406  0.213857557405  0.595155178345
  0.127246093750  0.213706398353  0.213706398352  0.596992300237
  0.128125000000  0.213536714289  0.213536714288  0.598819118127
  0.129003906250  0.213348934931  0.213348934930  0.600635407370
  0.129882812500  0.213143478418  0.213143478417  0.602440981829
  0.130761718750  0.212920751704  0.212920751704  0.604235691975
  0.131640625000  0.212681150931  0.212681150931  0.606019422719
  0.132519531250  0.212425061787  0.212425061786  0.607792091058
  0.133398437500  0.212152859850  0.212152859850  0.609553643613
  0.134277343750  0.211864910924  0.211864910924  0.611304054119
  0.135156250000  0.211561571354  0.211561571353  0.613043320922
  0.136035156250  0.211243188331  0.211243188331  0.614771464509
  0.136914062500  0.210910100192  0.210910100191  0.616488525129
  0.137792968750  0.210562636695  0.210562636694  0.618194560496
  0.138671875000  0.210201119298  0.210201119298  0.619889643623
  0.139550781250  0.209825861421  0.209825861420  0.621573860778
  0.140429687500  0.209437168691  0.209437168691  0.623247309581
  0.141308593750  0.209035339194  0.209035339194  0.624910097239
  0.142187500000  0.208620663703  0.208620663702  0.626562338926
  0.143066406250  0.208193425903  0.208193425902  0.628204156297
  0.143945312500  0.207753902611  0.207753902611  0.629835676143
  0.144824218750  0.207302363984  0.207302363984  0.631457029174
  0.145703125000  0.206839073720  0.206839073719  0.633068348931
  0.146582031250  0.206364289249  0.206364289248  0.634669770808
  0.147460937500  0.205878261926  0.205878261925  0.636261431189
  0.148339843750  0.205381237209  0.205381237208  0.637843466692
  0.149218750000  0.204873454830  0.204873454830  0.639416013499
  0.150097656250  0.204355148970  0.204355148969  0.640979206779
  0.150976562500  0.203826548412  0.203826548412  0.642533180191
  0.151855468750  0.203287876708  0.203287876707  0.644078065459
  0.152734375000  0.202739352320  0.202739352320  0.645613992014
  0.153613281250  0.202181188773  0.202181188773  0.647141086695
  0.154492187500  0.201613594793  0.201613594793  0.648659473505
  0.155371093750  0.201036774444  0.201036774443  0.650169273411
  0.156250000000  0.200450927257  0.200450927256  0.651670604196
  0.157128906250  0.199856248361  0.199856248361  0.653163580339
  0.158007812500  0.199252928605  0.199252928604  0.654648312936
  0.158886718750  0.198641154673  0.198641154672  0.656124909644
  0.159765625000  0.198021109204  0.198021109203  0.657593474658
  0.160644531250  0.197392970899  0.197392970899  0.659054108707
  0.161523437500  0.196756914632  0.196756914632  0.660506909068
  0.162402343750  0.196113111551  0.196113111550  0.661951969598
  0.163281250000  0.195461729178  0.195461729178  0.663389380783
  0.164160156250  0.194802931512  0.194802931511  0.664819229792
  0.165039062500  0.194136879114  0.194136879114  0.666241600551
  0.165917968750  0.193463729209  0.193463729208  0.667656573818
  0.166796875000  0.192783635763  0.192783635763  0.669064227264
  0.167675781250  0.192096749579  0.192096749579  0.670464635566
  0.168554687500  0.191403218373  0.191403218372  0.671857870498
  0.169433593750  0.190703186855  0.190703186855  0.673244001026
  0.170312500000  0.189996796811  0.189996796810  0.674623093412
  0.171191406250  0.189284187173  0.189284187173  0.675995211305
  0.172070312500  0.188565494096  0.188565494096  0.677360415852
  0.172949218750  0.187840851027  0.187840851027  0.678718765789
  0.173828125000  0.187110388774  0.187110388773  0.680070317548
  0.174707031250  0.186374235572  0.186374235571  0.681415125353
  0.175585937500  0.185632517149  0.185632517148  0.682753241318
  0.176464843750  0.184885356787  0.184885356786  0.684084715548
  0.177343750000  0.184132875384  0.184132875384  0.685409596228
  0.178222656250  0.183375191514  0.183375191513  0.686727929719
  0.179101562500  0.182612421479  0.182612421479  0.688039760652
  0.179980468750  0.181844679373  0.181844679373  0.689345132009
  0.180859375000  0.181072077127  0.181072077126  0.690644085220
  0.181738281250  0.180294724568  0.180294724567  0.691936660237
  0.182617187500  0.179512729466  0.179512729465  0.693222895624
  0.183496093750  0.178726197586  0.178726197585  0.694502828633
  0.184375000000  0.177935232734  0.177935232733  0.695776495281
  0.185253906250  0.177139936803  0.177139936803  0.697043930430
  0.186132812500  0.176340409822  0.176340409822  0.698305167853
  0.187011718750  0.175536749996  0.175536749996  0.699560240311
  0.187890625000  0.174729053749  0.174729053749  0.700809179619
  0.188769531250  0.173917415768  0.173917415768  0.702052016715
  0.189648437500  0.173101929042  0.173101929042  0.703288781721
  0.190527343750  0.172282684901  0.172282684901  0.704519504015
  0.191406250000  0.171459773053  0.171459773053  0.705744212282
  0.192285156250  0.170633281625  0.170633281624  0.706962934584
  0.193164062500  0.169803297193  0.169803297193  0.708175698413
  0.194042968750  0.168969904825  0.168969904825  0.709382530752
  0.194921875000  0.168133188106  0.168133188106  0.710583458129
  0.195800781250  0.167293229180  0.167293229180  0.711778506675
  0.196679687500  0.166450108775  0.166450108774  0.712967702178
  0.197558593750  0.165603906239  0.165603906239  0.714151070136
  0.198437500000  0.164754699570  0.164754699569  0.715328635811
  0.199316406250  0.163902565443  0.163902565443  0.716500424282
  0.200195312500  0.163047579243  0.163047579243  0.717666460499
  0.201074218750  0.162189815089  0.162189815089  0.718826769333
  0.201953125000  0.161329345867  0.161329345867  0.719981375629
  0.202832031250  0.160466243250  0.160466243250  0.721130304260
  0.203710937500  0.159600577729  0.159600577729  0.722273580180
  0.204589843750  0.158732418636  0.158732418636  0.723411228473
  0.205468750000  0.157861834172  0.157861834172  0.724543274412
  0.206347656250  0.156988891425  0.156988891425  0.725669743513
  0.207226562500  0.156113656401  0.156113656400  0.726790661585
  0.208105468750  0.155236194039  0.155236194039  0.727906054795
  0.208984375000  0.154356568241  0.154356568241  0.729015949719
  0.209863281250  0.153474841887  0.153474841887  0.730120373403
  0.210742187500  0.152591076861  0.152591076861  0.731219353428
  0.211621093750  0.151705334070  0.151705334069  0.732312917967
  0.212500000000  0.150817673461  0.150817673461  0.733401095853
  0.213378906250  0.149928154048  0.149928154048  0.734483916645
  0.214257812500  0.149036833923  0.149036833923  0.735561410697
  0.215136718750  0.148143770280  0.148143770280  0.736633609232
  0.216015625000  0.147249019430  0.147249019430  0.737700544416
  0.216894531250  0.146352636822  0.146352636822  0.738762249433
  0.217773437500  0.145454677058  0.145454677058  0.739818758572
  0.218652343750  0.144555193910  0.144555193909  0.740870107307
  0.219531250000  0.143654240336  0.143654240336  0.741916332389
  0.220410156250  0.142751868499  0.142751868499  0.742957471938
  0.221289062500  0.141848129779  0.141848129779  0.743993565537
  0.222167968750  0.140943074791  0.140943074791  0.745024654343
  0.223046875000  0.140036753397  0.140036753397  0.746050781182
  0.223925781250  0.139129214726  0.139129214726  0.747071990674
  0.224804687500  0.138220507181  0.138220507181  0.748088329341
  0.225683593750  0.137310678458  0.137310678458  0.749099845736
  0.226562500000  0.136399775559  0.136399775559  0.750106590574
  0.227441406250  0.135487844803  0.135487844803  0.751108616867
  0.228320312500  0.134574931841  0.134574931841  0.752105980071
  0.229199218750  0.133661081669  0.133661081669  0.753098738234
  0.230078125000  0.132746338637  0.132746338637  0.754086952162
  0.230957031250  0.131830746465  0.131830746465  0.755070685582
  0.231835937500  0.130914348253  0.130914348253  0.756050005324
  0.232714843750  0.129997186493  0.129997186493  0.757024981503
  0.233593750000  0.129079303078  0.129079303078  0.757995687718
  0.234472656250  0.128160739318  0.128160739318  0.758962201262
  0.235351562500  0.127241535945  0.127241535945  0.759924603334
  0.236230468750  0.126321733127  0.126321733127  0.760882979272
  0.237109375000  0.125401370478  0.125401370478  0.761837418793
  0.237988281250  0.124480487066  0.124480487066  0.762788016248
  0.238867187500  0.123559121425  0.123559121425  0.763734870886
  0.239746093750  0.122637311564  0.122637311564  0.764678087139
  0.240625000000  0.121715094977  0.121715094977  0.765617774913
  0.241503906250  0.120792508648  0.120792508648  0.766554049899
  0.242382812500  0.119869589067  0.119869589067  0.767487033898
  0.243261718750  0.118946372232  0.118946372232  0.768416855164
  0.244140625000  0.118022893664  0.118022893664  0.769343648761
  0.245019531250  0.117099188407  0.117099188407  0.770267556937
  0.245898437500  0.116175291046  0.116175291046  0.771188729519
  0.246777343750  0.115251235707  0.115251235708  0.772107324324
  0.247656250000  0.114327056070  0.114327056070  0.773023507593
  0.248535156250  0.113402785373  0.113402785373  0.773937454435
  0.249414062500  0.112478456421  0.112478456421  0.774849349301
  0.250292968750  0.111554101594  0.111554101595  0.775759386478
  0.251171875000  0.110629752856  0.110629752856  0.776667770592
  0.252050781250  0.109705441755  0.109705441756  0.777574717146
  0.252929687500  0.108781199439  0.108781199439  0.778480453076
  0.253808593750  0.107857056655  0.107857056655  0.779385217315
  0.254687500000  0.106933043760  0.106933043760  0.780289261400
  0.255566406250  0.106009190727  0.106009190728  0.781192850082
  0.256445312500  0.105085527151  0.105085527151  0.782096261964
  0.257324218750  0.104162082253  0.104162082253  0.782999790155
  0.258203125000  0.103238884889  0.103238884889  0.783903742950
  0.259082031250  0.102315963554  0.102315963555  0.784808444519
  0.259960937500  0.101393346391  0.101393346391  0.785714235618
  0.260839843750  0.100471061191  0.100471061192  0.786621474309
  0.261718750000  0.099549135405  0.099549135405  0.787530536699
  0.262597656250  0.098627596143  0.098627596144  0.788441817684
  0.263476562500  0.097706470186  0.097706470186  0.789355731699
  0.264355468750  0.096785783986  0.096785783986  0.790272713470
  0.265234375000  0.095865563673  0.095865563673  0.791193218771
  0.266113281250  0.094945835061  0.094945835061  0.792117725163
  0.266992187500  0.094026623651  0.094026623651  0.793046732729
  0.267871093750  0.093107954637  0.093107954638  0.793980764785
  0.268750000000  0.092189852912  0.092189852913  0.794920368566
  0.269628906250  0.091272343070  0.091272343070  0.795866115874
  0.270507812500  0.090355449410  0.090355449411  0.796818603683
  0.271386718750  0.089439195946  0.089439195946  0.797778454686
  0.272265625000  0.088523606404  0.088523606404  0.798746317772
  0.273144531250  0.087608704232  0.087608704232  0.799722868423
  0.274023437500  0.086694512600  0.086694512600  0.800708809010
  0.274902343750  0.085781054409  0.085781054409  0.801704868978
  0.275781250000  0.084868352289  0.084868352289  0.802711804896
  0.276660156250  0.083956428608  0.083956428608  0.803730400350
  0.277539062500  0.083045305474  0.083045305474  0.804761465671
  0.278417968750  0.082135004737  0.082135004738  0.805805837452
  0.279296875000  0.081225547998  0.081225547998  0.806864377851
  0.280175781250  0.080316956604  0.080316956605  0.807937973631
  0.281054687500  0.079409251662  0.079409251663  0.809027534928
  0.281933593750  0.078502454034  0.078502454035  0.810133993701
  0.282812500000  0.077596584345  0.077596584346  0.811258301838
  0.283691406250  0.076691662984  0.076691662985  0.812401428887
  0.284570312500  0.075787710110  0.075787710111  0.813564359368
  0.285449218750  0.074884745652  0.074884745653  0.814748089646
  0.286328125000  0.073982789315  0.073982789316  0.815953624311
  0.287207031250  0.073081860582  0.073081860583  0.817181972051
  0.288085937500  0.072181978717  0.072181978717  0.818434140975
  0.288964843750  0.071283162767  0.071283162767  0.819711133356
  0.289843750000  0.070385431568  0.070385431568  0.821013939775
  0.290722656250  0.069488803744  0.069488803745  0.822343532642
  0.291601562500  0.068593297714  0.068593297715  0.823700859087
  0.292480468750  0.067698931692  0.067698931692  0.825086833209
  0.293359375000  0.066805723688  0.066805723689  0.826502327706
  0.294238281250  0.065913691518  0.065913691518  0.827948164887
  0.295117187500  0.065022852797  0.065022852797  0.829425107131
  0.295996093750  0.064133224949  0.064133224949  0.830933846829
  0.296875000000  0.063244825207  0.063244825207  0.832474995897
  0.297753906250  0.062357670614  0.062357670615  0.834049074969
  0.298632812500  0.061471778030  0.061471778030  0.835656502396
  0.299511718750  0.060587164127  0.060587164127  0.837297583213
  0.300390625000  0.059703845400  0.059703845400  0.838972498275
  0.301269531250  0.058821838163  0.058821838163  0.840681293773
  0.302148437500  0.057941158553  0.057941158554  0.842423871414
  0.303027343750  0.057061822536  0.057061822536  0.844199979527
  0.303906250000  0.056183845901  0.056183845901  0.846009205425
  0.304785156250  0.055307244271  0.055307244272  0.847850969373
  0.305664062500  0.054432033101  0.054432033101  0.849724520478
  0.306542968750  0.053558227678  0.053558227678  0.851628934890
  0.307421875000  0.052685843128  0.052685843128  0.853563116617
  0.308300781250  0.051814894414  0.051814894415  0.855525801269
  0.309179687500  0.050945396342  0.050945396342  0.857515562974
  0.310058593750  0.050077363557  0.050077363557  0.859530824620
  0.310937500000  0.049210810551  0.049210810551  0.861569871477
  0.311816406250  0.048345751661  0.048345751661  0.863630868133
  0.312695312500  0.047482201074  0.047482201075  0.865711878489
  0.313574218750  0.046620172826  0.046620172827  0.867810888414
  0.314453125000  0.045759680805  0.045759680805  0.869925830457
  0.315332031250  0.044900738753  0.044900738753  0.872054609854
  0.316210937500  0.044043360267  0.044043360267  0.874195130874
  0.317089843750  0.043187558802  0.043187558803  0.876345322434
  0.317968750000  0.042333347672  0.042333347673  0.878503161848
  0.318847656250  0.041480740051  0.041480740052  0.880666695537
  0.319726562500  0.040629748976  0.040629748976  0.882834055614
  0.320605468750  0.039780387346  0.039780387347  0.885003471413
  0.321484375000  0.038932667929  0.038932667930  0.887173275281
  0.322363281250  0.038086603357  0.038086603358  0.889341902261
  0.323242187500  0.037242206133  0.037242206133  0.891507883688
  0.324121093750  0.036399488627  0.036399488628  0.893669835104
  0.325000000000  0.035558463085  0.035558463085  0.895826439319
  0.325878906250  0.034719141622  0.034719141622  0.897976425763
  0.326757812500  0.033881536230  0.033881536230  0.900118547570
  0.327636718750  0.033045658777  0.033045658777  0.902251557980
  0.328515625000  0.032211521008  0.032211521008  0.904374187693
  0.329394531250  0.031379134546  0.031379134547  0.906485124695
  0.330273437500  0.030548510897  0.030548510897  0.908582997906
  0.331152343750  0.029719661445  0.029719661445  0.910666365658
  0.332031250000  0.028892597459  0.028892597460  0.912733709666
  0.332910156250  0.028067330093  0.028067330094  0.914783434769
  0.333789062500  0.027243870385  0.027243870386  0.916813874322
  0.334667968750  0.026422229261  0.026422229261  0.918823300785
  0.335546875000  0.025602417533  0.025602417533  0.920809940780
  0.336425781250  0.024784445905  0.024784445905  0.922771993679
  0.337304687500  0.023968324970  0.023968324970  0.924707652696
  0.338183593750  0.023154065213  0.023154065213  0.926615127380
  0.339062500000  0.022341677012  0.022341677012  0.928492666497
  0.339941406250  0.021531170640  0.021531170640  0.930338580340
  0.340820312500  0.020722556264  0.020722556264  0.932151261655
  0.341699218750  0.019915843948  0.019915843948  0.933929204554
  0.342578125000  0.019111043653  0.019111043654  0.935671020905
  0.343457031250  0.018308165241  0.018308165241  0.937375453918
  0.344335937500  0.017507218470  0.017507218470  0.939041388729
  0.345214843750  0.016708213001  0.016708213002  0.940667859999
  0.346093750000  0.015911158398  0.015911158399  0.942254056569
  0.346972656250  0.015116064126  0.015116064126  0.943799323387
  0.347851562500  0.014322939555  0.014322939555  0.945303160912
  0.348730468750  0.013531793959  0.013531793959  0.946765222309
  0.349609375000  0.012742636519  0.012742636520  0.948185308712
  0.350488281250  0.011955476324  0.011955476324  0.949563362895
  0.351367187500  0.011170322369  0.011170322369  0.950899461647
  0.352246093750  0.010387183559  0.010387183559  0.952193807155
  0.353125000000  0.009606068709  0.009606068710  0.953446717670
  0.354003906250  0.008826986545  0.008826986546  0.954658617698
  0.354882812500  0.008049945705  0.008049945706  0.955830027951
  0.355761718750  0.007274954740  0.007274954740  0.956961555238
  0.356640625000  0.006502022113  0.006502022114  0.958053882465
  0.357519531250  0.005731156204  0.005731156204  0.959107758873
  0.358398437500  0.004962365307  0.004962365308  0.960123990630
  0.359277343750  0.004195657633  0.004195657634  0.961103431856
  0.360156250000  0.003431041311  0.003431041312  0.962046976148
  0.361035156250  0.002668524387  0.002668524387  0.962955548641
  0.361914062500  0.001908114825  0.001908114826  0.963830098644
  0.362792968750  0.001149820512  0.001149820513  0.964671592859
  0.363671875000  0.000393649254  0.000393649254  0.965481009186
  0.364550781250 -0.000360391223 -0.000360391222  0.966259331105
  0.365429687500 -0.001112293267 -0.001112293267  0.967007542627
  0.366308593750 -0.001862049307 -0.001862049306  0.967726623784
  0.367187500000 -0.002609651845 -0.002609651844  0.968417546643
  0.368066406250 -0.003355093459 -0.003355093459  0.969081271806
