radius      S_expected         S_actual            Error 
  0.000000000000  0.000000000000  0.027777777778  0.027777777778
  0.083333333333  0.458333333333  0.444444444444  0.013888888889
  0.166666666667  0.833333333333  0.819444444444  0.013888888889
  0.250000000000  1.125000000000  1.111111111111  0.013888888889
  0.333333333333  1.333333333333  1.319444444444  0.013888888889
  0.416666666667  1.458333333333  1.444444444444  0.013888888889
  0.500000000000  1.500000000000  1.486111111111  0.013888888889
  0.583333333333  1.458333333333  1.444444444444  0.013888888889
  0.666666666667  1.333333333333  1.319444444444  0.013888888889
  0.750000000000  1.125000000000  1.111111111111  0.013888888889
  0.833333333333  0.833333333333  0.819444444444  0.013888888889
  0.916666666667  0.458333333333  0.444444444444  0.013888888889
  1.000000000000  0.000000000000  0.000000000000  0.100000001490
