radius      S_expected         S_actual            Error 
  0.100000000000  0.000000000000  0.000000000000  1.603460219123
  0.101744186047  0.000068542471  0.000068543310  1.603447416801
  0.103488372093  0.000134687296  0.000134688890  1.603434614620
  0.105232558140  0.000198514743  0.000198517016  1.603421812583
  0.106976744186  0.000260101000  0.000260103881  1.603409010687
  0.108720930233  0.000319518450  0.000319521877  1.603396208933
  0.110465116279  0.000376835932  0.000376839847  1.603383407322
  0.112209302326  0.000432118974  0.000432123324  1.603370605854
  0.113953488372  0.000485430010  0.000485434749  1.603357804528
  0.115697674419  0.000536828582  0.000536833665  1.603345003344
  0.117441860465  0.000586371516  0.000586376905  1.603332202304
  0.119186046512  0.000634113100  0.000634118759  1.603319401406
  0.120930232558  0.000680105233  0.000680111128  1.603306600651
  0.122674418605  0.000724397570  0.000724403672  1.603293800039
  0.124418604651  0.000767037659  0.000767043940  1.603280999570
  0.126162790698  0.000808071062  0.000808077497  1.603268199244
  0.127906976744  0.000847541468  0.000847548035  1.603255399062
  0.129651162791  0.000885490803  0.000885497480  1.603242599023
  0.131395348837  0.000921959325  0.000921966094  1.603229799127
  0.133139534884  0.000956985720  0.000956992564  1.603216999375
  0.134883720930  0.000990607186  0.000990614088  1.603204199766
  0.136627906977  0.001022859510  0.001022866455  1.603191400301
  0.138372093023  0.001053777147  0.001053784123  1.603178600979
  0.140116279070  0.001083393289  0.001083400284  1.603165801802
  0.141860465116  0.001111739927  0.001111746930  1.603153002768
  0.143604651163  0.001138847916  0.001138854916  1.603140203879
  0.145348837209  0.001164747027  0.001164754016  1.603127405133
  0.147093023256  0.001189466009  0.001189472977  1.603114606532
  0.148837209302  0.001213032627  0.001213039568  1.603101808074
  0.150581395349  0.001235473723  0.001235480629  1.603089009761
  0.152325581395  0.001256815247  0.001256822113  1.603076211593
  0.154069767442  0.001277082310  0.001277089130  1.603063413569
  0.155813953488  0.001296299216  0.001296305984  1.603050615690
  0.157558139535  0.001314489501  0.001314496213  1.603037817955
  0.159302325581  0.001331675969  0.001331682620  1.603025020365
  0.161046511628  0.001347880722  0.001347887310  1.603012222920
  0.162790697674  0.001363125195  0.001363131715  1.602999425619
  0.164534883721  0.001377430182  0.001377436631  1.602986628464
  0.166279069767  0.001390815864  0.001390822241  1.602973831454
  0.168023255814  0.001403301838  0.001403308139  1.602961034589
  0.169767441860  0.001414907137  0.001414913360  1.602948237869
  0.171511627907  0.001425650259  0.001425656402  1.602935441295
  0.173255813953  0.001435549183  0.001435555245  1.602922644866
  0.175000000000  0.001444621395  0.001444627374  1.602909848582
  0.176744186047  0.001452883908  0.001452889803  1.602897052444
  0.178488372093  0.001460353275  0.001460359085  1.602884256452
  0.180232558140  0.001467045616  0.001467051340  1.602871460606
  0.181976744186  0.001472976626  0.001472982264  1.602858664905
  0.183720930233  0.001478161598  0.001478167149  1.602845869350
  0.185465116279  0.001482615437  0.001482620900  1.602833073941
  0.187209302326  0.001486352671  0.001486358046  1.602820278679
  0.188953488372  0.001489387468  0.001489392756  1.602807483562
  0.190697674419  0.001491733652  0.001491738851  1.602794688592
  0.192441860465  0.001493404709  0.001493409820  1.602781893768
  0.194186046512  0.001494413806  0.001494418829  1.602769099091
  0.195930232558  0.001494773797  0.001494778732  1.602756304560
  0.197674418605  0.001494497238  0.001494502086  1.602743510175
  0.199418604651  0.001493596395  0.001493601156  1.602730715937
  0.201162790698  0.001492083256  0.001492087930  1.602717921847
  0.202906976744  0.001489969540  0.001489974127  1.602705127902
  0.204651162791  0.001487266703  0.001487271204  1.602692334105
  0.206395348837  0.001483985954  0.001483990369  1.602679540455
  0.208139534884  0.001480138255  0.001480142586  1.602666746952
  0.209883720930  0.001475734336  0.001475738582  1.602653953596
  0.211627906977  0.001470784699  0.001470788861  1.602641160388
  0.213372093023  0.001465299624  0.001465303704  1.602628367326
  0.215116279070  0.001459289183  0.001459293180  1.602615574412
  0.216860465116  0.001452763237  0.001452767152  1.602602781646
  0.218604651163  0.001445731450  0.001445735285  1.602589989027
  0.220348837209  0.001438203294  0.001438207049  1.602577196556
  0.222093023256  0.001430188052  0.001430191727  1.602564404233
  0.223837209302  0.001421694826  0.001421698422  1.602551612058
  0.225581395349  0.001412732541  0.001412736060  1.602538820030
  0.227325581395  0.001403309954  0.001403313396  1.602526028151
  0.229069767442  0.001393435654  0.001393439020  1.602513236419
  0.230813953488  0.001383118071  0.001383121361  1.602500444836
  0.232558139535  0.001372365478  0.001372368694  1.602487653401
  0.234302325581  0.001361185997  0.001361189140  1.602474862115
  0.236046511628  0.001349587604  0.001349590674  1.602462070977
  0.237790697674  0.001337578130  0.001337581128  1.602449279987
  0.239534883721  0.001325165270  0.001325168197  1.602436489146
  0.241279069767  0.001312356582  0.001312359439  1.602423698454
  0.243023255814  0.001299159493  0.001299162281  1.602410907910
  0.244767441860  0.001285581305  0.001285584025  1.602398117516
  0.246511627907  0.001271629193  0.001271631845  1.602385327270
  0.248255813953  0.001257310213  0.001257312798  1.602372537173
  0.250000000000  0.001242631302  0.001242633822  1.602359747225
  0.251744186047  0.001227599286  0.001227601741  1.602346957427
  0.253488372093  0.001212220877  0.001212223268  1.602334167778
  0.255232558140  0.001196502678  0.001196505006  1.602321378278
  0.256976744186  0.001180451191  0.001180453456  1.602308588928
  0.258720930233  0.001164072809  0.001164075014  1.602295799727
  0.260465116279  0.001147373831  0.001147375974  1.602283010676
  0.262209302326  0.001130360454  0.001130362537  1.602270221774
  0.263953488372  0.001113038781  0.001113040806  1.602257433023
  0.265697674419  0.001095414824  0.001095416791  1.602244644421
  0.267441860465  0.001077494502  0.001077496412  1.602231855969
  0.269186046512  0.001059283648  0.001059285501  1.602219067667
  0.270930232558  0.001040788008  0.001040789805  1.602206279515
  0.272674418605  0.001022013243  0.001022014985  1.602193491514
  0.274418604651  0.001002964933  0.001002966621  1.602180703663
  0.276162790698  0.000983648578  0.000983650213  1.602167915962
  0.277906976744  0.000964069600  0.000964071182  1.602155128411
  0.279651162791  0.000944233345  0.000944234875  1.602142341011
  0.281395348837  0.000924145083  0.000924146562  1.602129553762
  0.283139534884  0.000903810012  0.000903811441  1.602116766664
  0.284883720930  0.000883233259  0.000883234638  1.602103979716
  0.286627906977  0.000862419882  0.000862421213  1.602091192919
  0.288372093023  0.000841374870  0.000841376152  1.602078406273
  0.290116279070  0.000820103146  0.000820104381  1.602065619778
  0.291860465116  0.000798609568  0.000798610756  1.602052833434
  0.293604651163  0.000776898930  0.000776900072  1.602040047242
  0.295348837209  0.000754975965  0.000754977062  1.602027261200
  0.297093023256  0.000732845344  0.000732846396  1.602014475310
  0.298837209302  0.000710511678  0.000710512687  1.602001689572
  0.300581395349  0.000687979523  0.000687980488  1.601988903985
  0.302325581395  0.000665253374  0.000665254296  1.601976118550
  0.304069767442  0.000642337672  0.000642338552  1.601963333266
  0.305813953488  0.000619236804  0.000619237643  1.601950548134
  0.307558139535  0.000595955102  0.000595955900  1.601937763154
  0.309302325581  0.000572496847  0.000572497605  1.601924978326
  0.311046511628  0.000548866267  0.000548866986  1.601912193650
  0.312790697674  0.000525067543  0.000525068223  1.601899409126
  0.314534883721  0.000501104802  0.000501105444  1.601886624755
  0.316279069767  0.000476982126  0.000476982731  1.601873840535
  0.318023255814  0.000452703550  0.000452704117  1.601861056468
  0.319767441860  0.000428273060  0.000428273591  1.601848272554
  0.321511627907  0.000403694599  0.000403695094  1.601835488792
  0.323255813953  0.000378972063  0.000378972523  1.601822705183
  0.325000000000  0.000354109307  0.000354109732  1.601809921726
  0.326744186047  0.000329110141  0.000329110532  1.601797138422
  0.328488372093  0.000303978334  0.000303978691  1.601784355271
  0.330232558140  0.000278717612  0.000278717936  1.601771572273
  0.331976744186  0.000253331664  0.000253331955  1.601758789428
  0.333720930233  0.000227824135  0.000227824394  1.601746006737
  0.335465116279  0.000202198633  0.000202198861  1.601733224198
  0.337209302326  0.000176458729  0.000176458926  1.601720441813
  0.338953488372  0.000150607954  0.000150608120  1.601707659581
  0.340697674419  0.000124649803  0.000124649939  1.601694877503
  0.342441860465  0.000098587734  0.000098587841  1.601682095578
  0.344186046512  0.000072425172  0.000072425250  1.601669313806
  0.345930232558  0.000046165504  0.000046165553  1.601656532189
  0.347674418605  0.000019812083  0.000019812104  1.601643750725
  0.349418604651 -0.000006631770 -0.000006631777  1.601630969415
  0.351162790698 -0.000033162769 -0.000033162803  1.601618188259
  0.352906976744 -0.000059777660 -0.000059777721  1.601605407258
  0.354651162791 -0.000086473221 -0.000086473308  1.601592626410
  0.356395348837 -0.000113246261 -0.000113246374  1.601579845716
  0.358139534884 -0.000140093621 -0.000140093760  1.601567065177
  0.359883720930 -0.000167012172 -0.000167012336  1.601554284792
  0.361627906977 -0.000193998816 -0.000193999004  1.601541504562
  0.363372093023 -0.000221050482 -0.000221050694  1.601528724486
  0.365116279070 -0.000248164130 -0.000248164366  1.601515944565
  0.366860465116 -0.000275336748 -0.000275337008  1.601503164799
  0.368604651163 -0.000302565353 -0.000302565635  1.601490385187
  0.370348837209 -0.000329846988 -0.000329847292  1.601477605730
  0.372093023256 -0.000357178723 -0.000357179050  1.601464826429
  0.373837209302 -0.000384557657 -0.000384558006  1.601452047282
  0.375581395349 -0.000411980914 -0.000411981284  1.601439268290
  0.377325581395 -0.000439445643 -0.000439446034  1.601426489454
  0.379069767442 -0.000466949019 -0.000466949431  1.601413710773
  0.380813953488 -0.000494488244 -0.000494488676  1.601400932247
  0.382558139535 -0.000522060542 -0.000522060994  1.601388153877
  0.384302325581 -0.000549663163 -0.000549663634  1.601375375663
  0.386046511628 -0.000577293380 -0.000577293871  1.601362597604
  0.387790697674 -0.000604948490 -0.000604949000  1.601349819701
  0.389534883721 -0.000632625814 -0.000632626343  1.601337041953
  0.391279069767 -0.000660322696 -0.000660323242  1.601324264362
  0.393023255814 -0.000688036500 -0.000688037064  1.601311486926
  0.394767441860 -0.000715764615 -0.000715765197  1.601298709647
  0.396511627907 -0.000743504451 -0.000743505050  1.601285932523
  0.398255813953 -0.000771253440 -0.000771254056  1.601273155556
  0.400000000000 -0.000799009035 -0.000799009667  1.601260378745
  0.401744186047 -0.000826768709 -0.000826769358  1.601247602091
  0.403488372093 -0.000854529957 -0.000854530622  1.601234825593
  0.405232558140 -0.000882290295 -0.000882290976  1.601222049252
  0.406976744186 -0.000910047257 -0.000910047953  1.601209273067
  0.408720930233 -0.000937798398 -0.000937799109  1.601196497039
  0.410465116279 -0.000965541293 -0.000965542019  1.601183721168
  0.412209302326 -0.000993273536 -0.000993274277  1.601170945453
  0.413953488372 -0.001020992739 -0.001020993494  1.601158169896
  0.415697674419 -0.001048696535 -0.001048697304  1.601145394496
  0.417441860465 -0.001076382573 -0.001076383356  1.601132619253
  0.419186046512 -0.001104048522 -0.001104049318  1.601119844167
  0.420930232558 -0.001131692068 -0.001131692877  1.601107069239
  0.422674418605 -0.001159310915 -0.001159311737  1.601094294468
  0.424418604651 -0.001186902785 -0.001186903620  1.601081519854
  0.426162790698 -0.001214465418 -0.001214466266  1.601068745398
  0.427906976744 -0.001241996570 -0.001241997429  1.601055971100
  0.429651162791 -0.001269494012 -0.001269494884  1.601043196959
  0.431395348837 -0.001296955537 -0.001296956420  1.601030422976
  0.433139534884 -0.001324378948 -0.001324379843  1.601017649152
  0.434883720930 -0.001351762070 -0.001351762976  1.601004875485
  0.436627906977 -0.001379102740 -0.001379103657  1.600992101976
  0.438372093023 -0.001406398813 -0.001406399740  1.600979328625
  0.440116279070 -0.001433648159 -0.001433649096  1.600966555433
  0.441860465116 -0.001460848662 -0.001460849610  1.600953782399
  0.443604651163 -0.001487998224 -0.001487999183  1.600941009524
  0.445348837209 -0.001515094761 -0.001515095729  1.600928236807
  0.447093023256 -0.001542136203 -0.001542137180  1.600915464248
  0.448837209302 -0.001569120495 -0.001569121482  1.600902691849
  0.450581395349 -0.001596045597 -0.001596046593  1.600889919608
  0.452325581395 -0.001622909483 -0.001622910488  1.600877147526
  0.454069767442 -0.001649710143 -0.001649711156  1.600864375603
  0.455813953488 -0.001676445577 -0.001676446599  1.600851603839
  0.457558139535 -0.001703113803 -0.001703114833  1.600838832234
  0.459302325581 -0.001729712850 -0.001729713889  1.600826060789
  0.461046511628 -0.001756240761 -0.001756241808  1.600813289502
  0.462790697674 -0.001782695595 -0.001782696650  1.600800518376
  0.464534883721 -0.001809075420 -0.001809076482  1.600787747408
  0.466279069767 -0.001835378320 -0.001835379390  1.600774976601
  0.468023255814 -0.001861602392 -0.001861603468  1.600762205953
  0.469767441860 -0.001887745743 -0.001887746826  1.600749435464
  0.471511627907 -0.001913806495 -0.001913807586  1.600736665136
  0.473255813953 -0.001939782783 -0.001939783880  1.600723894968
  0.475000000000 -0.001965672753 -0.001965673857  1.600711124959
  0.476744186047 -0.001991474563 -0.001991475673  1.600698355111
  0.478488372093 -0.002017186384 -0.002017187500  1.600685585424
  0.480232558140 -0.002042806399 -0.002042807522  1.600672815896
  0.481976744186 -0.002068332803 -0.002068333931  1.600660046529
  0.483720930233 -0.002093763800 -0.002093764934  1.600647277323
  0.485465116279 -0.002119097610 -0.002119098750  1.600634508277
  0.487209302326 -0.002144332462 -0.002144333607  1.600621739392
  0.488953488372 -0.002169466596 -0.002169467745  1.600608970668
  0.490697674419 -0.002194498263 -0.002194499418  1.600596202105
  0.492441860465 -0.002219425727 -0.002219426887  1.600583433703
  0.494186046512 -0.002244247262 -0.002244248426  1.600570665463
  0.495930232558 -0.002268961152 -0.002268962321  1.600557897384
  0.497674418605 -0.002293565694 -0.002293566867  1.600545129466
  0.499418604651 -0.002318059192 -0.002318060369  1.600532361710
  0.501162790698 -0.002342439964 -0.002342441145  1.600519594116
  0.502906976744 -0.002366706336 -0.002366707522  1.600506826683
  0.504651162791 -0.002390856648 -0.002390857837  1.600494059413
  0.506395348837 -0.002414889245 -0.002414890438  1.600481292304
  0.508139534884 -0.002438802486 -0.002438803682  1.600468525358
  0.509883720930 -0.002462594738 -0.002462595939  1.600455758575
  0.511627906977 -0.002486264381 -0.002486265584  1.600442991954
  0.513372093023 -0.002509809800 -0.002509811007  1.600430225495
  0.515116279070 -0.002533229394 -0.002533230603  1.600417459200
  0.516860465116 -0.002556521569 -0.002556522781  1.600404693068
  0.518604651163 -0.002579684742 -0.002579685957  1.600391927099
  0.520348837209 -0.002602717339 -0.002602718557  1.600379161293
  0.522093023256 -0.002625617795 -0.002625619015  1.600366395651
  0.523837209302 -0.002648384555 -0.002648385778  1.600353630174
  0.525581395349 -0.002671016073 -0.002671017298  1.600340864860
  0.527325581395 -0.002693510811 -0.002693512038  1.600328099710
  0.529069767442 -0.002715867242 -0.002715868471  1.600315334725
  0.530813953488 -0.002738083846 -0.002738085077  1.600302569905
  0.532558139535 -0.002760159113 -0.002760160346  1.600289805250
  0.534302325581 -0.002782091542 -0.002782092777  1.600277040760
  0.536046511628 -0.002803879640 -0.002803880876  1.600264276435
  0.537790697674 -0.002825521922 -0.002825523160  1.600251512277
  0.539534883721 -0.002847016913 -0.002847018152  1.600238748285
  0.541279069767 -0.002868363145 -0.002868364386  1.600225984460
  0.543023255814 -0.002889559161 -0.002889560402  1.600213220801
  0.544767441860 -0.002910603508 -0.002910604751  1.600200457310
  0.546511627907 -0.002931494746 -0.002931495989  1.600187693987
  0.548255813953 -0.002952231439 -0.002952232683  1.600174930832
  0.550000000000 -0.002972812161 -0.002972813406  1.600162167846
  0.551744186047 -0.002993235496 -0.002993236741  1.600149405028
  0.553488372093 -0.003013500031 -0.003013501277  1.600136642381
  0.555232558140 -0.003033604366 -0.003033605613  1.600123879904
  0.556976744186 -0.003053547106 -0.003053548353  1.600111117598
  0.558720930233 -0.003073326863 -0.003073328110  1.600098355464
  0.560465116279 -0.003092942260 -0.003092943507  1.600085593502
  0.562209302326 -0.003112391924 -0.003112393171  1.600072831713
  0.563953488372 -0.003131674491 -0.003131675739  1.600060070097
  0.565697674419 -0.003150788606 -0.003150789854  1.600047308657
  0.567441860465 -0.003169732919 -0.003169734167  1.600034547392
  0.569186046512 -0.003188506089 -0.003188507336  1.600021786304
  0.570930232558 -0.003207106781 -0.003207108028  1.600009025394
  0.572674418605 -0.003225533668 -0.003225534914  1.599996264663
  0.574418604651 -0.003243785430 -0.003243786676  1.599983504111
  0.576162790698 -0.003261860755 -0.003261861999  1.599970743742
  0.577906976744 -0.003279758335 -0.003279759580  1.599957983555
  0.579651162791 -0.003297476874 -0.003297478117  1.599945223552
  0.581395348837 -0.003315015078 -0.003315016321  1.599932463736
  0.583139534884 -0.003332371663 -0.003332372905  1.599919704108
  0.584883720930 -0.003349545351 -0.003349546591  1.599906944669
  0.586627906977 -0.003366534870 -0.003366536109  1.599894185423
  0.588372093023 -0.003383338955 -0.003383340193  1.599881426370
  0.590116279070 -0.003399956349 -0.003399957586  1.599868667515
  0.591860465116 -0.003416385800 -0.003416387035  1.599855908858
  0.593604651163 -0.003432626062 -0.003432627296  1.599843150403
  0.595348837209 -0.003448675899 -0.003448677132  1.599830392153
  0.597093023256 -0.003464534078 -0.003464535309  1.599817634112
  0.598837209302 -0.003480199372 -0.003480200602  1.599804876282
  0.600581395349 -0.003495670564 -0.003495671792  1.599792118667
  0.602325581395 -0.003510946440 -0.003510947666  1.599779361273
  0.604069767442 -0.003526025794 -0.003526027018  1.599766604102
  0.605813953488 -0.003540907424 -0.003540908647  1.599753847160
  0.607558139535 -0.003555590138 -0.003555591358  1.599741090452
  0.609302325581 -0.003570072746 -0.003570073964  1.599728333983
  0.611046511628 -0.003584354067 -0.003584355283  1.599715577760
  0.612790697674 -0.003598432924 -0.003598434138  1.599702821788
  0.614534883721 -0.003612308148 -0.003612309359  1.599690066075
  0.616279069767 -0.003625978573 -0.003625979782  1.599677310629
  0.618023255814 -0.003639443042 -0.003639444249  1.599664555457
  0.619767441860 -0.003652700402 -0.003652701607  1.599651800568
  0.621511627907 -0.003665749506 -0.003665750708  1.599639045972
  0.623255813953 -0.003678589214 -0.003678590414  1.599626291679
  0.625000000000 -0.003691218390 -0.003691219587  1.599613537700
  0.626744186047 -0.003703635904 -0.003703637098  1.599600784047
  0.628488372093 -0.003715840632 -0.003715841823  1.599588030732
  0.630232558140 -0.003727831456 -0.003727832645  1.599575277770
  0.631976744186 -0.003739607263 -0.003739608449  1.599562525176
