radius      S_expected         S_actual            Error 
  0.100000000000  0.000000000000  0.000000000000  0.781392285029
  0.101757812500  0.000254099619  0.000253333717  0.782856882043
  0.103515625000  0.000491474013  0.000490119708  0.784309897701
  0.105273437500  0.000700277489  0.000698634571  0.785737153956
  0.107031250000  0.000871925251  0.000870343431  0.787124182188
  0.108789062500  0.001001724349  0.001000528299  0.788456094942
  0.110546875000  0.001088833121  0.001088265496  0.789717716164
  0.112304687500  0.001135677586  0.001135870743  0.790893946536
  0.114062500000  0.001147047993  0.001148024062  0.791970286062
  0.115820312500  0.001129109354  0.001130800667  0.792933411562
  0.117578125000  0.001088508425  0.001090787655  0.793771711595
  0.119335937500  0.001031682025  0.001034392840  0.794475706364
  0.121093750000  0.000964398784  0.000967381149  0.795038313167
  0.122851562500  0.000891514971  0.000894622698  0.795454949061
  0.124609375000  0.000816898367  0.000820009010  0.795723485784
  0.126367187500  0.000743467240  0.000746485819  0.795844085952
  0.128125000000  0.000673296807  0.000676155263  0.795818955024
  0.129882812500  0.000607756347  0.000610410495  0.795652042835
  0.131640625000  0.000547651730  0.000550077068  0.795348723988
  0.133398437500  0.000493358125  0.000495545430  0.794915480185
  0.135156250000  0.000444935170  0.000446886432  0.794359601098
  0.136914062500  0.000402221966  0.000403946907  0.793688914442
  0.138671875000  0.000364912317  0.000366425597  0.792911551038
  0.140429687500  0.000332612300  0.000333931366  0.792035746912
  0.142187500000  0.000304882888  0.000306026396  0.791069681755
  0.143945312500  0.000281270474  0.000282257173  0.790021351337
  0.145703125000  0.000261327897  0.000262175887  0.788898470408
  0.147460937500  0.000244628231  0.000245354499  0.787708402140
  0.149218750000  0.000230773195  0.000231393353  0.786458110060
  0.150976562500  0.000219397661  0.000219925830  0.785154128575
  0.152734375000  0.000210171412  0.000210620206  0.783802548535
  0.154492187500  0.000202799020  0.000203179600  0.782409014627
  0.156250000000  0.000197018506  0.000197340661  0.780978731871
  0.158007812500  0.000192599232  0.000192871496  0.779516478888
  0.159765625000  0.000189339393  0.000189569162  0.778026626002
  0.161523437500  0.000187063319  0.000187256976  0.776513156612
  0.163281250000  0.000185618777  0.000185781805  0.774979690583
  0.165039062500  0.000184874343  0.000185011441  0.773429508653
  0.166796875000  0.000184716947  0.000184832126  0.771865577116
  0.168554687500  0.000185049594  0.000185146272  0.770290572201
  0.170312500000  0.000185789305  0.000185870387  0.768706903731
  0.172070312500  0.000186865258  0.000186933207  0.767116737770
  0.173828125000  0.000188217138  0.000188274042  0.765522018067
  0.175585937500  0.000189793685  0.000189841308  0.763924486176
  0.177343750000  0.000191551412  0.000191591244  0.762325700185
  0.179101562500  0.000193453492  0.000193486790  0.760727052056
  0.180859375000  0.000195468791  0.000195496613  0.759129783579
  0.182617187500  0.000197571031  0.000197594269  0.757535000990
  0.184375000000  0.000199738069  0.000199757471  0.755943688300
  0.186132812500  0.000201951277  0.000201967475  0.754356719420
  0.187890625000  0.000204195015  0.000204208536  0.752774869135
  0.189648437500  0.000206456175  0.000206467464  0.751198823023
  0.191406250000  0.000208723794  0.000208733225  0.749629186377
  0.193164062500  0.000210988735  0.000210996621  0.748066492224
  0.194921875000  0.000213243403  0.000213250008  0.746511208494
  0.196679687500  0.000215481511  0.000215487058  0.744963744418
  0.198437500000  0.000217697892  0.000217702569  0.743424456221
  0.200195312500  0.000219888329  0.000219892295  0.741893652156
  0.201953125000  0.000222049421  0.000222052813  0.740371596947
  0.203710937500  0.000224178477  0.000224181413  0.738858515674
  0.205468750000  0.000226273422  0.000226276005  0.737354597165
  0.207226562500  0.000228332732  0.000228335054  0.735859996905
  0.208984375000  0.000230355379  0.000230357524  0.734374839524
  0.210742187500  0.000232340800  0.000232342847  0.732899220878
  0.212500000000  0.000234288875  0.000234290901  0.731433209740
  0.214257812500  0.000236199923  0.000236202004  0.729976849150
  0.216015625000  0.000238074713  0.000238076930  0.728530157401
  0.217773437500  0.000239914494  0.000239916934  0.727093128710
  0.219531250000  0.000241721037  0.000241723796  0.725665733553
  0.221289062500  0.000243496703  0.000243499892  0.724247918688
  0.223046875000  0.000245244530  0.000245248276  0.722839606850
  0.224804687500  0.000246968345  0.000246972799  0.721440696128
  0.226562500000  0.000248672908  0.000248678249  0.720051059003
  0.228320312500  0.000250364092  0.000250370537  0.718670541044
  0.230078125000  0.000252049109  0.000252056916  0.717298959236
  0.231835937500  0.000253736779  0.000253746263  0.715936099933
  0.233593750000  0.000255437872  0.000255449413  0.714581716389
  0.235351562500  0.000257165516  0.000257179577  0.713235525858
  0.237109375000  0.000258935706  0.000258952851  0.711897206212
  0.238867187500  0.000260767915  0.000260788828  0.710566392046
  0.240625000000  0.000262685839  0.000262711355  0.709242670213
  0.242382812500  0.000264718315  0.000264749448  0.707925574754
  0.244140625000  0.000266900421  0.000266938408  0.706614581141
  0.245898437500  0.000269274826  0.000269321171  0.705309099797
  0.247656250000  0.000271893421  0.000271949956  0.704008468801
  0.249414062500  0.000274819310  0.000274888261  0.702711945722
  0.251171875000  0.000278129209  0.000278213288  0.701418698484
  0.252929687500  0.000281916377  0.000282018878  0.700127795197
  0.254687500000  0.000286294145  0.000286419073  0.698838192856
  0.256445312500  0.000291400208  0.000291552426  0.697548724819
  0.258203125000  0.000297401806  0.000297587218  0.696258086982
  0.259960937500  0.000304501987  0.000304727753  0.694964822571
  0.261718750000  0.000312947168  0.000313221967  0.693667305458
  0.263476562500  0.000323036241  0.000323370577  0.692363721959
  0.265234375000  0.000335131528  0.000335538100  0.691052051057
  0.266992187500  0.000349671917  0.000350166056  0.689730043036
  0.268750000000  0.000367188588  0.000367788767  0.688395196561
  0.270507812500  0.000388323755  0.000389052183  0.687044734250
  0.272265625000  0.000413852914  0.000414736217  0.685675576916
  0.274023437500  0.000444711109  0.000445781108  0.684284316664
  0.275781250000  0.000482023743  0.000483318310  0.682867189200
  0.277539062500  0.000527142383  0.000528706364  0.681420045802
  0.279296875000  0.000581685937  0.000583572105  0.679938325576
  0.281054687500  0.000647587300  0.000649857265  0.678417028822
  0.282812500000  0.000727145177  0.000729870150  0.676850692566
  0.284570312500  0.000823080092  0.000826341322  0.675233369594
  0.286328125000  0.000938592562  0.000942481185  0.673558612692
  0.288085937500  0.001077419806  0.001082035744  0.671819466175
  0.289843750000  0.001243885132  0.001249334496  0.670008467342
  0.291601562500  0.001442930960  0.001449321256  0.668117661064
  0.293359375000  0.001680122202  0.001687554444  0.666138631522
  0.295117187500  0.001961601354  0.001970157966  0.664062556035
  0.296875000000  0.002293970137  0.002303697458  0.661880287119
  0.298632812500  0.002684065505  0.002694949790  0.659582470301
  0.300390625000  0.003138591493  0.003150527771  0.657159706880
  0.302148437500  0.003663564942  0.003676319221  0.654602772456
  0.303906250000  0.004263536601  0.004276703910  0.651902903519
  0.305664062500  0.004940564726  0.004953528677  0.649052164821
  0.307421875000  0.005692952946  0.005704856676  0.646043908706
  0.309179687500  0.006513823829  0.006523566839  0.642873332482
  0.310937500000  0.007389686355  0.007395965076  0.639538129272
  0.312695312500  0.008299261305  0.008300670636  0.636039210118
  0.314453125000  0.009212929195  0.009208134240  0.632381449751
  0.316210937500  0.010093216663  0.010081186283  0.628574377648
  0.317968750000  0.010896682228  0.010876950049  0.624632705970
  0.319726562500  0.011577352746  0.011550244417  0.620576567165
  0.321484375000  0.012091494813  0.012058245913  0.616431339341
  0.323242187500  0.012403056741  0.012365757610  0.612226977136
  0.325000000000  0.012488743454  0.012450090385  0.607996840395
  0.326757812500  0.012341572874  0.012304467757  0.603776108953
  0.328515625000  0.011972020668  0.011939116762  0.599599962714
  0.330273437500  0.011406445821  0.011379758318  0.595501761684
  0.332031250000  0.010683195833  0.010663871024  0.591511460681
  0.333789062500  0.009847346431  0.009835625709  0.587654437934
  0.335546875000  0.008945243404  0.008940596172  0.583950825920
  0.337304687500  0.008019857170  0.008021215975  0.580415336761
  0.339062500000  0.007107561055  0.007113583183  0.577057499862
  0.340820312500  0.006236490306  0.006245786524  0.573882189884
  0.342578125000  0.005426282862  0.005437581610  0.570890317820
  0.344335937500  0.004688812038  0.004701053082  0.568079576768
  0.346093750000  0.004029484719  0.004041853068  0.565445164026
  0.347851562500  0.003448743465  0.003460661480  0.562980431935
  0.349609375000  0.002943519016  0.002954614595  0.560677445244
  0.351367187500  0.002508487842  0.002518552839  0.558527440436
  0.353125000000  0.002137075279  0.002146023556  0.556521193100
  0.354882812500  0.001822201986  0.001830032315  0.554649304517
  0.356640625000  0.001556803276  0.001563569240  0.552902420195
  0.358398437500  0.001334164007  0.001339951120  0.551271392622
  0.360156250000  0.001148113212  0.001153022489  0.549747399088
  0.361914062500  0.000993117897  0.000997254675  0.548322023739
  0.363671875000  0.000864308241  0.000867775033  0.546987311408
  0.365429687500  0.000757458922  0.000760351218  0.545735799350
  0.367187500000  0.000668944639  0.000671348738  0.544560531835
  0.368945312500  0.000595682378  0.000597674599  0.543455061591
  0.370703125000  0.000535068851  0.000536715595  0.542413441344
  0.372460937500  0.000484918393  0.000486276720  0.541430208051
  0.374218750000  0.000443404467  0.000444522936  0.540500361936
  0.375976562500  0.000409006422  0.000409926043  0.539619342016
  0.377734375000  0.000380462182  0.000381217379  0.538782999472
  0.379492187500  0.000356726951  0.000357346480  0.537987569896
  0.381250000000  0.000336937623  0.000337445408  0.537229645270
  0.383007812500  0.000320382436  0.000320798319  0.536506146261
  0.384765625000  0.000306475291  0.000306815685  0.535814295330
  0.386523437500  0.000294734161  0.000295012611  0.535151590957
  0.388281250000  0.000284763021  0.000284990688  0.534515783223
  0.390039062500  0.000276236793  0.000276422858  0.533904850877
  0.391796875000  0.000268888844  0.000269040850  0.533316979970
  0.393554687500  0.000262500619  0.000262624758  0.532750544079
  0.395312500000  0.000256893086  0.000256994434  0.532204086089
  0.397070312500  0.000251919661  0.000252002380  0.531676301516
  0.398828125000  0.000247460394  0.000247527890  0.531166023287
  0.400585937500  0.000243417170  0.000243472232  0.530672207904
  0.402343750000  0.000239709778  0.000239754686  0.530193922925
  0.404101562500  0.000236272669  0.000236309291  0.529730335645
  0.405859375000  0.000233052309  0.000233082168  0.529280702921
  0.407617187500  0.000230004993  0.000230029336  0.528844362028
  0.409375000000  0.000227095067  0.000227114913  0.528420722477
  0.411132812500  0.000224293463  0.000224309643  0.528009258706
  0.412890625000  0.000221576501  0.000221589696  0.527609503587
  0.414648437500  0.000218924912  0.000218935677  0.527221042646
  0.416406250000  0.000216323033  0.000216331822  0.526843508979
  0.418164062500  0.000213758153  0.000213765336  0.526476578757
  0.419921875000  0.000211219977  0.000211225860  0.526119967309
  0.421679687500  0.000208700193  0.000208705024  0.525773425709
  0.423437500000  0.000206192110  0.000206196092  0.525436737840
  0.425195312500  0.000203690369  0.000203693673  0.525109717892
  0.426953125000  0.000201190713  0.000201193476  0.524792208265
  0.428710937500  0.000198689788  0.000198692128  0.524484077856
  0.430468750000  0.000196184996  0.000196187010  0.524185220692
  0.432226562500  0.000193674369  0.000193676140  0.523895554910
  0.433984375000  0.000191156470  0.000191158071  0.523615022062
  0.435742187500  0.000188630321  0.000188631815  0.523343586732
  0.437500000000  0.000186095339  0.000186096786  0.523081236463
  0.439257812500  0.000183551301  0.000183552756  0.522827981999
  0.441015625000  0.000180998309  0.000180999826  0.522583857829
  0.442773437500  0.000178436776  0.000178438409  0.522348923056
  0.444531250000  0.000175867422  0.000175869228  0.522123262587
  0.446289062500  0.000173291274  0.000173293316  0.521906988666
  0.448046875000  0.000170709691  0.000170712038  0.521700242767
  0.449804687500  0.000168124381  0.000168127111  0.521503197863
  0.451562500000  0.000165537446  0.000165540647  0.521316061107
  0.453320312500  0.000162951426  0.000162955203  0.521139076947
  0.455078125000  0.000160369365  0.000160373838  0.520972530710
  0.456835937500  0.000157794885  0.000157800197  0.520816752705
  0.458593750000  0.000155232281  0.000155238601  0.520672122872
  0.460351562500  0.000152686633  0.000152694157  0.520539076041
  0.462109375000  0.000150163935  0.000150172898  0.520418107844
  0.463867187500  0.000147671254  0.000147681933  0.520309781344
  0.465625000000  0.000145216912  0.000145229636  0.520214734432
  0.467382812500  0.000142810706  0.000142825862  0.520133688073
  0.469140625000  0.000140464151  0.000140482200  0.520067455446
  0.470898437500  0.000138190781  0.000138212265  0.520016952070
  0.472656250000  0.000136006483  0.000136032045  0.519983206957
  0.474414062500  0.000133929893  0.000133960288  0.519967374881
  0.476171875000  0.000131982841  0.000132018964  0.519970749802
  0.477929687500  0.000130190879  0.000130233780  0.519994779495
  0.479687500000  0.000128583865  0.000128634779  0.520041081421
  0.481445312500  0.000127196638  0.000127257016  0.520111459844
  0.483203125000  0.000126069778  0.000126141319  0.520207924151
  0.484960937500  0.000125250455  0.000125335147  0.520332708338
  0.486718750000  0.000124793380  0.000124893541  0.520488291495
  0.488476562500  0.000124761837  0.000124880166  0.520677419113
  0.490234375000  0.000125228820  0.000125368447  0.520903124906
  0.491992187500  0.000126278225  0.000126442771  0.521168752715
  0.493750000000  0.000128006106  0.000128199738  0.521477977931
  0.495507812500  0.000130521926  0.000130749421  0.521834827681
  0.497265625000  0.000133949755  0.000134216553  0.522243698782
  0.499023437500  0.000138429315  0.000138741573  0.522709372223
  0.500781250000  0.000144116734  0.000144481360  0.523237022614
  0.502539062500  0.000151184834  0.000151609496  0.523832220681
  0.504296875000  0.000159822671  0.000160315771  0.524500926498
  0.506054687500  0.000170234007  0.000170804595  0.525249470714
  0.507812500000  0.000182634228  0.000183291837  0.526084520606
  0.509570312500  0.000197245126  0.000197999494  0.527013027385
  0.511328125000  0.000214286789  0.000215147427  0.528042150827
  0.513085937500  0.000233965645  0.000234941210  0.529179157163
  0.514843750000  0.000256457571  0.000257554997  0.530431286193
  0.516601562500  0.000281884789  0.000283108119  0.531805584110
  0.518359375000  0.000310285238  0.000311634129  0.533308699508
  0.520117187500  0.000341573206  0.000343041108  0.534946641898
  0.521875000000  0.000375490466  0.000377062518  0.536724504828
  0.523632812500  0.000411548073  0.000413198885  0.538646159717
  0.525390625000  0.000448960666  0.000450652281  0.540713931823
  0.527148437500  0.000486577798  0.000488258329  0.542928276368
  0.528906250000  0.000522820666  0.000524424328  0.545287480380
  0.530664062500  0.000555637578  0.000557087005  0.547787423361
  0.532421875000  0.000582497082  0.000583708867  0.550421436045
  0.534179687500  0.000600442496  0.000601336620  0.553180298814
  0.535937500000  0.000606233261  0.000606746344  0.556052416926
  0.537695312500  0.000596593740  0.000596694699  0.559024195449
  0.539453125000  0.000568575136  0.000568280137  0.562080610698
  0.541210937500  0.000520009281  0.000519391224  0.565205937823
  0.542968750000  0.000449996416  0.000449183674  0.568384551535
  0.544726562500  0.000359331978  0.000358492668  0.571601679812
  0.546484375000  0.000250755601  0.000250067693  0.574843973765
  0.548242187500  0.000128916238  0.000128529436  0.578099774422
  0.550000000000  0.000000000000  0.000000000000  0.581359013990
  0.551757812500 -0.000128946939 -0.000128560136  0.584612774969
  0.553515625000 -0.000250877213 -0.000250189305  0.587852620220
  0.555273437500 -0.000359601280 -0.000358761970  0.591069869134
  0.557031250000 -0.000450464870 -0.000449652129  0.594255006028
  0.558789062500 -0.000520721692 -0.000520103635  0.597397363355
  0.560546875000 -0.000569568899 -0.000569273900  0.600485142234
  0.562304687500 -0.000597898676 -0.000597999635  0.603505745959
  0.564062500000 -0.000607871928 -0.000608385011  0.606446336138
  0.565820312500 -0.000602430853 -0.000603324978  0.609294490284
  0.567578125000 -0.000584845368 -0.000586057153  0.612038843705
  0.569335937500 -0.000558351274 -0.000559800701  0.614669626272
  0.571093750000 -0.000525901453 -0.000527505115  0.617179042296
  0.572851562500 -0.000490024437 -0.000491704968  0.619561477491
  0.574609375000 -0.000452769772 -0.000454461387  0.621813544352
  0.576367187500 -0.000415714761 -0.000417365573  0.623933993937
  0.578125000000 -0.000380008868 -0.000381580920  0.625923529253
  0.579882812500 -0.000346436880 -0.000347904782  0.627784555545
  0.581640625000 -0.000315487475 -0.000316836366  0.629520898608
  0.583398437500 -0.000287418832 -0.000288642161  0.631137515991
  0.585156250000 -0.000262316771 -0.000263414197  0.632640219317
  0.586914062500 -0.000240143568 -0.000241119133  0.634035419774
  0.588671875000 -0.000220777274 -0.000221637911  0.635329903755
  0.590429687500 -0.000204042319 -0.000204796687  0.636530641647
  0.592187500000 -0.000189732594 -0.000190390203  0.637644629924
  0.593945312500 -0.000177628329 -0.000178198916  0.638678764794
  0.595703125000 -0.000167508033 -0.000168001132  0.639639744488
  0.597460937500 -0.000159156602 -0.000159581264  0.640533996694
  0.599218750000 -0.000152370536 -0.000152735162  0.641367627467
  0.600976562500 -0.000146961013 -0.000147273271  0.642146388023
  0.602734375000 -0.000142755421 -0.000143022219  0.642875656086
  0.604492187500 -0.000139597817 -0.000139825312  0.643560428817
  0.606250000000 -0.000137348643 -0.000137542276  0.644205324709
  0.608007812500 -0.000135883970 -0.000136048517  0.644814592262
  0.609765625000 -0.000135094457 -0.000135234085  0.645392123585
  0.611523437500 -0.000134884155 -0.000135002484  0.645941471428
  0.613281250000 -0.000135169253 -0.000135269414  0.646465868420
  0.615039062500 -0.000135876836 -0.000135961527  0.646968247578
  0.616796875000 -0.000136943677 -0.000137015218  0.647451263322
  0.618554687500 -0.000138315121 -0.000138375499  0.647917312458
  0.620312500000 -0.000139944037 -0.000139994951  0.648368554690
  0.622070312500 -0.000141789879 -0.000141832779  0.648806932383
  0.623828125000 -0.000143817834 -0.000143853956  0.649234189359
  0.625585937500 -0.000145998064 -0.000146028459  0.649651888604
  0.627343750000 -0.000148305034 -0.000148330595  0.650061428808
  0.629101562500 -0.000150716922 -0.000150738406  0.650464059717
  0.630859375000 -0.000153215100 -0.000153233148  0.650860896291
  0.632617187500 -0.000155783684 -0.000155798841  0.651252931696
  0.634375000000 -0.000158409143 -0.000158421867  0.651641049183
  0.636132812500 -0.000161079957 -0.000161090637  0.652026032888
