radius      S_expected         S_actual            Error 
  0.100000000000 -0.000000000000 -0.000000000000  0.805245614745
  0.103515625000  0.000000024085  0.000000024085  0.802095604502
  0.107031250000  0.000000047604  0.000000047604  0.799002144270
  0.110546875000  0.000000070561  0.000000070561  0.795964856039
  0.114062500000  0.000000092960  0.000000092960  0.792983361801
  0.117578125000  0.000000114806  0.000000114806  0.790057283546
  0.121093750000  0.000000136103  0.000000136103  0.787186243266
  0.124609375000  0.000000156856  0.000000156856  0.784369862951
  0.128125000000  0.000000177069  0.000000177069  0.781607764594
  0.131640625000  0.000000196747  0.000000196747  0.778899570183
  0.135156250000  0.000000215893  0.000000215893  0.776244901712
  0.138671875000  0.000000234513  0.000000234513  0.773643381170
  0.142187500000  0.000000252611  0.000000252611  0.771094630550
  0.145703125000  0.000000270192  0.000000270192  0.768598271841
  0.149218750000  0.000000287259  0.000000287259  0.766153927035
  0.152734375000  0.000000303818  0.000000303818  0.763761218123
  0.156250000000  0.000000319873  0.000000319873  0.761419767095
  0.159765625000  0.000000335427  0.000000335427  0.759129195944
  0.163281250000  0.000000350487  0.000000350487  0.756889126660
  0.166796875000  0.000000365055  0.000000365055  0.754699181234
  0.170312500000  0.000000379137  0.000000379137  0.752558981657
  0.173828125000  0.000000392738  0.000000392738  0.750468149920
  0.177343750000  0.000000405860  0.000000405860  0.748426308014
  0.180859375000  0.000000418510  0.000000418510  0.746433077930
  0.184375000000  0.000000430691  0.000000430691  0.744488081660
  0.187890625000  0.000000442408  0.000000442408  0.742590941193
  0.191406250000  0.000000453665  0.000000453665  0.740741278523
  0.194921875000  0.000000464467  0.000000464467  0.738938715638
  0.198437500000  0.000000474818  0.000000474818  0.737182874531
  0.201953125000  0.000000484723  0.000000484723  0.735473377192
  0.205468750000  0.000000494186  0.000000494186  0.733809845613
  0.208984375000  0.000000503212  0.000000503212  0.732191901784
  0.212500000000  0.000000511805  0.000000511805  0.730619167696
  0.216015625000  0.000000519969  0.000000519969  0.729091265341
  0.219531250000  0.000000527709  0.000000527709  0.727607816710
  0.223046875000  0.000000535029  0.000000535029  0.726168443793
  0.226562500000  0.000000541935  0.000000541935  0.724772768582
  0.230078125000  0.000000548430  0.000000548430  0.723420413067
  0.233593750000  0.000000554518  0.000000554518  0.722110999241
  0.237109375000  0.000000560205  0.000000560205  0.720844149093
  0.240625000000  0.000000565495  0.000000565495  0.719619484614
  0.244140625000  0.000000570392  0.000000570392  0.718436627797
  0.247656250000  0.000000574900  0.000000574900  0.717295200631
  0.251171875000  0.000000579024  0.000000579024  0.716194825109
  0.254687500000  0.000000582769  0.000000582769  0.715135123220
  0.258203125000  0.000000586139  0.000000586139  0.714115716956
  0.261718750000  0.000000589139  0.000000589139  0.713136228308
  0.265234375000  0.000000591772  0.000000591772  0.712196279267
  0.268750000000  0.000000594044  0.000000594044  0.711295491824
  0.272265625000  0.000000595958  0.000000595958  0.710433487971
  0.275781250000  0.000000597520  0.000000597520  0.709609889697
  0.279296875000  0.000000598734  0.000000598734  0.708824318995
  0.282812500000  0.000000599604  0.000000599604  0.708076397854
  0.286328125000  0.000000600134  0.000000600134  0.707365748267
  0.289843750000  0.000000600330  0.000000600330  0.706691992224
  0.293359375000  0.000000600195  0.000000600195  0.706054751717
  0.296875000000  0.000000599735  0.000000599735  0.705453648736
  0.300390625000  0.000000598953  0.000000598953  0.704888305272
  0.303906250000  0.000000597853  0.000000597853  0.704358343317
  0.307421875000  0.000000596442  0.000000596442  0.703863384861
  0.310937500000  0.000000594722  0.000000594722  0.703403051895
  0.314453125000  0.000000592698  0.000000592698  0.702976966411
  0.317968750000  0.000000590376  0.000000590376  0.702584750400
  0.321484375000  0.000000587758  0.000000587758  0.702226025852
  0.325000000000  0.000000584851  0.000000584851  0.701900414759
  0.328515625000  0.000000581657  0.000000581657  0.701607539111
  0.332031250000  0.000000578183  0.000000578183  0.701347020900
  0.335546875000  0.000000574431  0.000000574431  0.701118482117
  0.339062500000  0.000000570407  0.000000570407  0.700921544752
  0.342578125000  0.000000566115  0.000000566115  0.700755830798
  0.346093750000  0.000000561560  0.000000561560  0.700620962244
  0.349609375000  0.000000556745  0.000000556745  0.700516561082
  0.353125000000  0.000000551676  0.000000551676  0.700442249303
  0.356640625000  0.000000546357  0.000000546357  0.700397648898
  0.360156250000  0.000000540792  0.000000540792  0.700382381858
  0.363671875000  0.000000534987  0.000000534987  0.700396070173
  0.367187500000  0.000000528944  0.000000528944  0.700438335836
  0.370703125000  0.000000522669  0.000000522669  0.700508800837
  0.374218750000  0.000000516167  0.000000516167  0.700607087167
  0.377734375000  0.000000509441  0.000000509441  0.700732816817
  0.381250000000  0.000000502496  0.000000502496  0.700885611779
  0.384765625000  0.000000495337  0.000000495337  0.701065094042
  0.388281250000  0.000000487968  0.000000487968  0.701270885599
  0.391796875000  0.000000480393  0.000000480393  0.701502608440
  0.395312500000  0.000000472618  0.000000472618  0.701759884557
  0.398828125000  0.000000464645  0.000000464645  0.702042335940
  0.402343750000  0.000000456481  0.000000456481  0.702349584580
  0.405859375000  0.000000448130  0.000000448130  0.702681252468
  0.409375000000  0.000000439595  0.000000439595  0.703036961596
  0.412890625000  0.000000430881  0.000000430881  0.703416333955
  0.416406250000  0.000000421994  0.000000421994  0.703818991535
  0.419921875000  0.000000412936  0.000000412936  0.704244556328
  0.423437500000  0.000000403713  0.000000403713  0.704692650324
  0.426953125000  0.000000394330  0.000000394330  0.705162895515
  0.430468750000  0.000000384790  0.000000384790  0.705654913892
  0.433984375000  0.000000375098  0.000000375098  0.706168327445
  0.437500000000  0.000000365259  0.000000365259  0.706702758166
  0.441015625000  0.000000355277  0.000000355277  0.707257828046
  0.444531250000  0.000000345156  0.000000345156  0.707833159076
  0.448046875000  0.000000334902  0.000000334902  0.708428373246
  0.451562500000  0.000000324517  0.000000324517  0.709043092549
  0.455078125000  0.000000314008  0.000000314008  0.709676938974
  0.458593750000  0.000000303378  0.000000303378  0.710329534514
  0.462109375000  0.000000292632  0.000000292632  0.711000501158
  0.465625000000  0.000000281774  0.000000281774  0.711689460898
  0.469140625000  0.000000270809  0.000000270809  0.712396035726
  0.472656250000  0.000000259742  0.000000259742  0.713119847631
  0.476171875000  0.000000248576  0.000000248576  0.713860518606
  0.479687500000  0.000000237316  0.000000237316  0.714617670641
  0.483203125000  0.000000225967  0.000000225967  0.715390925727
  0.486718750000  0.000000214533  0.000000214533  0.716179905856
  0.490234375000  0.000000203018  0.000000203018  0.716984233017
  0.493750000000  0.000000191428  0.000000191428  0.717803529203
  0.497265625000  0.000000179766  0.000000179766  0.718637416405
  0.500781250000  0.000000168037  0.000000168037  0.719485516613
  0.504296875000  0.000000156246  0.000000156246  0.720347451818
  0.507812500000  0.000000144396  0.000000144396  0.721222844012
  0.511328125000  0.000000132493  0.000000132493  0.722111315185
  0.514843750000  0.000000120541  0.000000120541  0.723012487329
  0.518359375000  0.000000108544  0.000000108544  0.723925982434
  0.521875000000  0.000000096506  0.000000096506  0.724851422492
  0.525390625000  0.000000084434  0.000000084434  0.725788429494
  0.528906250000  0.000000072329  0.000000072329  0.726736625430
  0.532421875000  0.000000060198  0.000000060198  0.727695632292
  0.535937500000  0.000000048045  0.000000048045  0.728665072071
  0.539453125000  0.000000035874  0.000000035874  0.729644566757
  0.542968750000  0.000000023689  0.000000023689  0.730633738343
  0.546484375000  0.000000011495  0.000000011495  0.731632208818
  0.550000000000 -0.000000000703 -0.000000000703  0.732639600174
  0.553515625000 -0.000000012901 -0.000000012901  0.733655534403
  0.557031250000 -0.000000025094 -0.000000025094  0.734679633494
  0.560546875000 -0.000000037279 -0.000000037279  0.735711519439
  0.564062500000 -0.000000049450 -0.000000049450  0.736750814229
  0.567578125000 -0.000000061604 -0.000000061604  0.737797139856
  0.571093750000 -0.000000073735 -0.000000073735  0.738850118309
  0.574609375000 -0.000000085839 -0.000000085839  0.739909371581
  0.578125000000 -0.000000097912 -0.000000097912  0.740974521662
  0.581640625000 -0.000000109949 -0.000000109949  0.742045190543
  0.585156250000 -0.000000121946 -0.000000121946  0.743121000215
  0.588671875000 -0.000000133898 -0.000000133898  0.744201572670
  0.592187500000 -0.000000145801 -0.000000145801  0.745286529898
  0.595703125000 -0.000000157651 -0.000000157651  0.746375493891
  0.599218750000 -0.000000169442 -0.000000169442  0.747468086638
  0.602734375000 -0.000000181171 -0.000000181171  0.748563930133
  0.606250000000 -0.000000192833 -0.000000192833  0.749662646365
  0.609765625000 -0.000000204423 -0.000000204423  0.750763857325
  0.613281250000 -0.000000215938 -0.000000215938  0.751867185005
  0.616796875000 -0.000000227371 -0.000000227371  0.752972251395
  0.620312500000 -0.000000238720 -0.000000238720  0.754078678488
  0.623828125000 -0.000000249980 -0.000000249980  0.755186088273
  0.627343750000 -0.000000261146 -0.000000261146  0.756294102741
  0.630859375000 -0.000000272213 -0.000000272213  0.757402343885
  0.634375000000 -0.000000283178 -0.000000283178  0.758510433694
  0.637890625000 -0.000000294035 -0.000000294035  0.759617994160
  0.641406250000 -0.000000304781 -0.000000304781  0.760724647273
  0.644921875000 -0.000000315411 -0.000000315411  0.761830015026
  0.648437500000 -0.000000325919 -0.000000325919  0.762933719409
  0.651953125000 -0.000000336303 -0.000000336303  0.764035382413
  0.655468750000 -0.000000346557 -0.000000346557  0.765134626028
  0.658984375000 -0.000000356677 -0.000000356677  0.766231072247
  0.662500000000 -0.000000366659 -0.000000366659  0.767324343060
  0.666015625000 -0.000000376497 -0.000000376497  0.768414060458
  0.669531250000 -0.000000386188 -0.000000386188  0.769499846432
  0.673046875000 -0.000000395727 -0.000000395727  0.770581322973
  0.676562500000 -0.000000405110 -0.000000405110  0.771658112073
  0.680078125000 -0.000000414332 -0.000000414332  0.772729835722
  0.683593750000 -0.000000423388 -0.000000423388  0.773796115911
  0.687109375000 -0.000000432274 -0.000000432274  0.774856574631
  0.690625000000 -0.000000440987 -0.000000440987  0.775910833874
  0.694140625000 -0.000000449520 -0.000000449520  0.776958515631
  0.697656250000 -0.000000457870 -0.000000457870  0.777999241891
  0.701171875000 -0.000000466033 -0.000000466033  0.779032634648
  0.704687500000 -0.000000474003 -0.000000474003  0.780058315890
  0.708203125000 -0.000000481777 -0.000000481777  0.781075907611
  0.711718750000 -0.000000489349 -0.000000489349  0.782085031800
  0.715234375000 -0.000000496716 -0.000000496716  0.783085310449
  0.718750000000 -0.000000503873 -0.000000503873  0.784076365548
  0.722265625000 -0.000000510816 -0.000000510816  0.785057819089
  0.725781250000 -0.000000517539 -0.000000517539  0.786029293063
  0.729296875000 -0.000000524039 -0.000000524039  0.786990409460
  0.732812500000 -0.000000530311 -0.000000530311  0.787940790273
  0.736328125000 -0.000000536350 -0.000000536350  0.788880057491
  0.739843750000 -0.000000542153 -0.000000542153  0.789807833106
  0.743359375000 -0.000000547714 -0.000000547714  0.790723739109
  0.746875000000 -0.000000553030 -0.000000553030  0.791627397492
  0.750390625000 -0.000000558095 -0.000000558095  0.792518430244
  0.753906250000 -0.000000562906 -0.000000562906  0.793396459357
  0.757421875000 -0.000000567457 -0.000000567457  0.794261106822
  0.760937500000 -0.000000571744 -0.000000571744  0.795111994631
  0.764453125000 -0.000000575764 -0.000000575764  0.795948744773
  0.767968750000 -0.000000579510 -0.000000579510  0.796770979241
  0.771484375000 -0.000000582980 -0.000000582980  0.797578320025
  0.775000000000 -0.000000586168 -0.000000586168  0.798370389117
  0.778515625000 -0.000000589070 -0.000000589070  0.799146808506
  0.782031250000 -0.000000591682 -0.000000591682  0.799907200185
  0.785546875000 -0.000000593998 -0.000000593998  0.800651186145
  0.789062500000 -0.000000596015 -0.000000596015  0.801378388376
  0.792578125000 -0.000000597728 -0.000000597728  0.802088428869
  0.796093750000 -0.000000599133 -0.000000599133  0.802780929616
  0.799609375000 -0.000000600225 -0.000000600225  0.803455512607
  0.803125000000 -0.000000600999 -0.000000600999  0.804111799834
  0.806640625000 -0.000000601452 -0.000000601452  0.804749413288
  0.810156250000 -0.000000601578 -0.000000601578  0.805367974959
  0.813671875000 -0.000000601374 -0.000000601374  0.805967106839
  0.817187500000 -0.000000600834 -0.000000600834  0.806546430919
  0.820703125000 -0.000000599955 -0.000000599955  0.807105569189
  0.824218750000 -0.000000598732 -0.000000598732  0.807644143642
  0.827734375000 -0.000000597160 -0.000000597160  0.808161776267
  0.831250000000 -0.000000595235 -0.000000595235  0.808658089056
  0.834765625000 -0.000000592952 -0.000000592952  0.809132704000
  0.838281250000 -0.000000590307 -0.000000590307  0.809585243090
  0.841796875000 -0.000000587296 -0.000000587296  0.810015328316
  0.845312500000 -0.000000583914 -0.000000583914  0.810422581671
  0.848828125000 -0.000000580156 -0.000000580156  0.810806625145
  0.852343750000 -0.000000576019 -0.000000576019  0.811167080730
  0.855859375000 -0.000000571497 -0.000000571497  0.811503570415
  0.859375000000 -0.000000566586 -0.000000566586  0.811815716192
  0.862890625000 -0.000000561282 -0.000000561282  0.812103140053
  0.866406250000 -0.000000555580 -0.000000555580  0.812365463988
  0.869921875000 -0.000000549476 -0.000000549476  0.812602309988
  0.873437500000 -0.000000542965 -0.000000542965  0.812813300045
  0.876953125000 -0.000000536043 -0.000000536043  0.812998056149
  0.880468750000 -0.000000528705 -0.000000528705  0.813156200291
  0.883984375000 -0.000000520947 -0.000000520947  0.813287354463
  0.887500000000 -0.000000512765 -0.000000512765  0.813391140655
  0.891015625000 -0.000000504153 -0.000000504153  0.813467180859
  0.894531250000 -0.000000495108 -0.000000495108  0.813515097065
  0.898046875000 -0.000000485625 -0.000000485625  0.813534511266
  0.901562500000 -0.000000475700 -0.000000475700  0.813525045450
  0.905078125000 -0.000000465327 -0.000000465327  0.813486321611
  0.908593750000 -0.000000454504 -0.000000454504  0.813417961738
  0.912109375000 -0.000000443224 -0.000000443224  0.813319587822
  0.915625000000 -0.000000431484 -0.000000431484  0.813190821856
  0.919140625000 -0.000000419279 -0.000000419279  0.813031285829
  0.922656250000 -0.000000406604 -0.000000406604  0.812840601734
  0.926171875000 -0.000000393457 -0.000000393457  0.812618391560
  0.929687500000 -0.000000379830 -0.000000379830  0.812364277299
  0.933203125000 -0.000000365721 -0.000000365721  0.812077880942
  0.936718750000 -0.000000351125 -0.000000351125  0.811758824480
  0.940234375000 -0.000000336038 -0.000000336038  0.811406729905
  0.943750000000 -0.000000320454 -0.000000320454  0.811021219206
  0.947265625000 -0.000000304370 -0.000000304370  0.810601914376
  0.950781250000 -0.000000287780 -0.000000287780  0.810148437404
  0.954296875000 -0.000000270682 -0.000000270682  0.809660410283
  0.957812500000 -0.000000253069 -0.000000253069  0.809137455003
  0.961328125000 -0.000000234938 -0.000000234938  0.808579193556
  0.964843750000 -0.000000216283 -0.000000216283  0.807985247931
  0.968359375000 -0.000000197102 -0.000000197102  0.807355240121
  0.971875000000 -0.000000177389 -0.000000177389  0.806688792117
  0.975390625000 -0.000000157139 -0.000000157139  0.805985525909
  0.978906250000 -0.000000136349 -0.000000136349  0.805245063488
  0.982421875000 -0.000000115013 -0.000000115013  0.804467026846
  0.985937500000 -0.000000093128 -0.000000093128  0.803651037974
  0.989453125000 -0.000000070688 -0.000000070688  0.802796718862
  0.992968750000 -0.000000047690 -0.000000047690  0.801903691502
  0.996484375000 -0.000000024129 -0.000000024129  0.800971577884
  1.000000000000  0.000000000000  0.000000000000  0.800000000000
