radius      S_expected         S_actual            Error 
  0.100000000000  0.000000000000  0.000000000000  1.952293005659
  0.156250000000  0.021936163019  0.021951939825  1.935317976781
  0.212500000000  0.030224861152  0.030211450178  1.922683713057
  0.268750000000  0.031276555097  0.031271621780  1.913190111627
  0.325000000000  0.028029899495  0.028027927869  1.904942685429
  0.381250000000  0.022228895599  0.022228092012  1.897115766596
  0.437500000000  0.015067210192  0.015066901287  1.889445226806
  0.493750000000  0.007428780368  0.007428687471  1.881856109487
  0.550000000000  0.000000000000  0.000000000000  1.874329780207
  0.606250000000 -0.006665134880 -0.006665098591  1.866862601772
  0.662500000000 -0.012101954693 -0.012101908572  1.859450766306
  0.718750000000 -0.015908216998 -0.015908173249  1.852075093915
  0.775000000000 -0.017732023748 -0.017731987643  1.844659528626
  0.831250000000 -0.017271414876 -0.017271388261  1.836937579208
  0.887500000000 -0.014279410155 -0.014279393184  1.828077557721
  0.943750000000 -0.008567169896 -0.008567185044  1.816170505501
  1.000000000000 -0.000000000000 -0.000000000000  1.800000000000
