radius      S_expected         S_actual            Error 
  0.100000000000  0.207031273120  0.204077154050  0.444064765922
  0.156250000000  0.200450927257  0.201936229589  0.780257506457
  0.212500000000  0.150817673461  0.152360162259  1.025054468434
  0.268750000000  0.092189852912  0.093797940807  1.190736620644
  0.325000000000  0.035558463085  0.037210686638  1.287232220050
  0.381250000000 -0.014272581417 -0.012611896292  1.324765203178
  0.437500000000 -0.054894700096 -0.053254488011  1.313910377911
  0.493750000000 -0.085036061833 -0.083423588188  1.265324766232
  0.550000000000 -0.103956100114 -0.102356033325  1.189590725477
  0.606250000000 -0.111087059842 -0.109474586198  1.097138741569
  0.662500000000 -0.105857145996 -0.104216933911  0.998218847291
  0.718750000000 -0.087681210596 -0.086020525471  0.902874837131
  0.775000000000 -0.056065662014 -0.054413438461  0.820876713895
  0.831250000000 -0.010731922671 -0.009123834777  0.761571842611
  0.887500000000  0.048337597954  0.049880086752  0.733526097301
  0.943750000000  0.120979314339  0.122464616671  0.743946110614
  1.000000000000  0.207031273120  0.204077154050  0.800005454244
