radius      S_expected         S_actual            Error 
  0.100000000000  0.004162918916  0.004162855366  0.805245614751
  0.101757812500  0.004185889067  0.004185920842  0.808077718637
  0.103515625000  0.004205794296  0.004205826071  0.810884121918
  0.105273437500  0.004222800767  0.004222832542  0.813664910728
  0.107031250000  0.004237063730  0.004237095505  0.816420171194
  0.108789062500  0.004248728401  0.004248760176  0.819149989442
  0.110546875000  0.004257930761  0.004257962535  0.821854451593
  0.112304687500  0.004264798275  0.004264830050  0.824533643768
  0.114062500000  0.004269450556  0.004269482330  0.827187652081
  0.115820312500  0.004271999951  0.004272031726  0.829816562647
  0.117578125000  0.004272552093  0.004272583867  0.832420461574
  0.119335937500  0.004271206389  0.004271238164  0.834999434971
  0.121093750000  0.004268056476  0.004268088250  0.837553568940
  0.122851562500  0.004263190631  0.004263222406  0.840082949583
  0.124609375000  0.004256692152  0.004256723927  0.842587662996
  0.126367187500  0.004248639702  0.004248671476  0.845067795275
  0.128125000000  0.004239107626  0.004239139401  0.847523432511
  0.129882812500  0.004228166247  0.004228198021  0.849954660792
  0.131640625000  0.004215882131  0.004215913906  0.852361566204
  0.133398437500  0.004202318336  0.004202350111  0.854744234829
  0.135156250000  0.004187534641  0.004187566416  0.857102752747
  0.136914062500  0.004171587755  0.004171619530  0.859437206032
  0.138671875000  0.004154531510  0.004154563285  0.861747680758
  0.140429687500  0.004136417047  0.004136448821  0.864034262996
  0.142187500000  0.004117292974  0.004117324749  0.866297038812
  0.143945312500  0.004097205529  0.004097237304  0.868536094270
  0.145703125000  0.004076198717  0.004076230492  0.870751515430
  0.147460937500  0.004054314445  0.004054346220  0.872943388350
  0.149218750000  0.004031592647  0.004031624422  0.875111799085
  0.150976562500  0.004008071397  0.004008103171  0.877256833687
  0.152734375000  0.003983787015  0.003983818790  0.879378578203
  0.154492187500  0.003958774172  0.003958805947  0.881477118679
  0.156250000000  0.003933065976  0.003933097751  0.883552541158
  0.158007812500  0.003906694063  0.003906725838  0.885604931678
  0.159765625000  0.003879688678  0.003879720452  0.887634376275
  0.161523437500  0.003852078748  0.003852110523  0.889640960984
  0.163281250000  0.003823891956  0.003823923731  0.891624771832
  0.165039062500  0.003795154806  0.003795186581  0.893585894849
  0.166796875000  0.003765892685  0.003765924460  0.895524416057
  0.168554687500  0.003736129921  0.003736161696  0.897440421477
  0.170312500000  0.003705889838  0.003705921613  0.899333997126
  0.172070312500  0.003675194807  0.003675226582  0.901205229020
  0.173828125000  0.003644066295  0.003644098070  0.903054203170
  0.175585937500  0.003612524910  0.003612556685  0.904881005585
  0.177343750000  0.003580590442  0.003580622217  0.906685722269
  0.179101562500  0.003548281906  0.003548313680  0.908468439225
  0.180859375000  0.003515617576  0.003515649351  0.910229242452
  0.182617187500  0.003482615025  0.003482646800  0.911968217947
  0.184375000000  0.003449291155  0.003449322930  0.913685451702
  0.186132812500  0.003415662230  0.003415694005  0.915381029708
  0.187890625000  0.003381743906  0.003381775681  0.917055037951
  0.189648437500  0.003347551258  0.003347583033  0.918707562416
  0.191406250000  0.003313098808  0.003313130583  0.920338689083
  0.193164062500  0.003278400551  0.003278432326  0.921948503929
  0.194921875000  0.003243469974  0.003243501749  0.923537092930
  0.196679687500  0.003208320087  0.003208351861  0.925104542058
  0.198437500000  0.003172963434  0.003172995209  0.926650937279
  0.200195312500  0.003137412124  0.003137443898  0.928176364561
  0.201953125000  0.003101677840  0.003101709615  0.929680909865
  0.203710937500  0.003065771866  0.003065803640  0.931164659150
  0.205468750000  0.003029705097  0.003029736872  0.932627698373
  0.207226562500  0.002993488060  0.002993519835  0.934070113487
  0.208984375000  0.002957130929  0.002957162704  0.935491990442
  0.210742187500  0.002920643537  0.002920675312  0.936893415186
  0.212500000000  0.002884035393  0.002884067168  0.938274473661
  0.214257812500  0.002847315695  0.002847347470  0.939635251808
  0.216015625000  0.002810493339  0.002810525114  0.940975835566
  0.217773437500  0.002773576938  0.002773608713  0.942296310870
  0.219531250000  0.002736574826  0.002736606601  0.943596763650
  0.221289062500  0.002699495074  0.002699526849  0.944877279835
  0.223046875000  0.002662345498  0.002662377273  0.946137945352
  0.224804687500  0.002625133673  0.002625165447  0.947378846121
  0.226562500000  0.002587866934  0.002587898708  0.948600068064
  0.228320312500  0.002550552393  0.002550584168  0.949801697094
  0.230078125000  0.002513196947  0.002513228722  0.950983819128
  0.231835937500  0.002475807281  0.002475839055  0.952146520073
  0.233593750000  0.002438389879  0.002438421654  0.953289885837
  0.235351562500  0.002400951034  0.002400982809  0.954414002325
  0.237109375000  0.002363496850  0.002363528625  0.955518955436
  0.238867187500  0.002326033254  0.002326065029  0.956604831070
  0.240625000000  0.002288565998  0.002288597773  0.957671715120
  0.242382812500  0.002251100669  0.002251132443  0.958719693478
  0.244140625000  0.002213642691  0.002213674466  0.959748852034
  0.245898437500  0.002176197336  0.002176229111  0.960759276672
  0.247656250000  0.002138769726  0.002138801500  0.961751053275
  0.249414062500  0.002101364836  0.002101396611  0.962724267722
  0.251171875000  0.002063987505  0.002064019280  0.963679005890
  0.252929687500  0.002026642438  0.002026674212  0.964615353652
  0.254687500000  0.001989334207  0.001989365982  0.965533396879
  0.256445312500  0.001952067262  0.001952099037  0.966433221436
  0.258203125000  0.001914845932  0.001914877707  0.967314913189
  0.259960937500  0.001877674426  0.001877706201  0.968178557998
  0.261718750000  0.001840556845  0.001840588620  0.969024241722
  0.263476562500  0.001803497176  0.001803528951  0.969852050214
  0.265234375000  0.001766499303  0.001766531078  0.970662069328
  0.266992187500  0.001729567008  0.001729598783  0.971454384910
  0.268750000000  0.001692703975  0.001692735749  0.972229082808
  0.270507812500  0.001655913789  0.001655945564  0.972986248864
  0.272265625000  0.001619199946  0.001619231721  0.973725968917
  0.274023437500  0.001582565852  0.001582597627  0.974448328804
  0.275781250000  0.001546014825  0.001546046600  0.975153414357
  0.277539062500  0.001509550101  0.001509581876  0.975841311408
  0.279296875000  0.001473174833  0.001473206607  0.976512105783
  0.281054687500  0.001436892095  0.001436923870  0.977165883306
  0.282812500000  0.001400704888  0.001400736663  0.977802729800
  0.284570312500  0.001364616136  0.001364647911  0.978422731080
  0.286328125000  0.001328628692  0.001328660467  0.979025972964
  0.288085937500  0.001292745340  0.001292777115  0.979612541262
  0.289843750000  0.001256968797  0.001257000572  0.980182521783
  0.291601562500  0.001221301714  0.001221333489  0.980736000332
  0.293359375000  0.001185746679  0.001185778453  0.981273062714
  0.295117187500  0.001150306218  0.001150337992  0.981793794726
  0.296875000000  0.001114982798  0.001115014572  0.982298282166
  0.298632812500  0.001079778828  0.001079810602  0.982786610827
  0.300390625000  0.001044696660  0.001044728435  0.983258866500
  0.302148437500  0.001009738594  0.001009770369  0.983715134971
  0.303906250000  0.000974906874  0.000974938649  0.984155502025
  0.305664062500  0.000940203694  0.000940235469  0.984580053444
  0.307421875000  0.000905631198  0.000905662973  0.984988875004
  0.309179687500  0.000871191480  0.000871223255  0.985382052482
  0.310937500000  0.000836886590  0.000836918364  0.985759671649
  0.312695312500  0.000802718528  0.000802750303  0.986121818274
  0.314453125000  0.000768689253  0.000768721028  0.986468578123
  0.316210937500  0.000734800679  0.000734832454  0.986800036958
  0.317968750000  0.000701054679  0.000701086453  0.987116280540
  0.319726562500  0.000667453082  0.000667484857  0.987417394625
  0.321484375000  0.000633997680  0.000634029455  0.987703464966
  0.323242187500  0.000600690227  0.000600722002  0.987974577314
  0.325000000000  0.000567532436  0.000567564210  0.988230817417
  0.326757812500  0.000534525985  0.000534557760  0.988472271018
  0.328515625000  0.000501672517  0.000501704292  0.988699023859
  0.330273437500  0.000468973640  0.000469005415  0.988911161679
  0.332031250000  0.000436430927  0.000436462702  0.989108770211
  0.333789062500  0.000404045918  0.000404077693  0.989291935189
  0.335546875000  0.000371820123  0.000371851897  0.989460742342
  0.337304687500  0.000339755018  0.000339786792  0.989615277394
  0.339062500000  0.000307852050  0.000307883825  0.989755626070
  0.340820312500  0.000276112636  0.000276144411  0.989881874089
  0.342578125000  0.000244538166  0.000244569941  0.989994107167
  0.344335937500  0.000213129998  0.000213161773  0.990092411019
  0.346093750000  0.000181889465  0.000181921240  0.990176871355
  0.347851562500  0.000150817874  0.000150849649  0.990247573882
  0.349609375000  0.000119916503  0.000119948278  0.990304604305
  0.351367187500  0.000089186608  0.000089218383  0.990348048326
  0.353125000000  0.000058629417  0.000058661192  0.990377991642
  0.354882812500  0.000028246136  0.000028277911  0.990394519949
  0.356640625000 -0.000001962053 -0.000001930278  0.990397718939
  0.358398437500 -0.000031993991 -0.000031962216  0.990387674302
  0.360156250000 -0.000061848543 -0.000061816768  0.990364471722
  0.361914062500 -0.000091524595 -0.000091492820  0.990328196884
  0.363671875000 -0.000121021052 -0.000120989277  0.990278935467
  0.365429687500 -0.000150336843 -0.000150305069  0.990216773149
  0.367187500000 -0.000179470917 -0.000179439143  0.990141795602
  0.368945312500 -0.000208422242 -0.000208390467  0.990054088497
  0.370703125000 -0.000237189805 -0.000237158030  0.989953737503
  0.372460937500 -0.000265772612 -0.000265740837  0.989840828284
  0.374218750000 -0.000294169689 -0.000294137915  0.989715446501
  0.375976562500 -0.000322380080 -0.000322348305  0.989577677813
  0.377734375000 -0.000350402844 -0.000350371069  0.989427607876
  0.379492187500 -0.000378237059 -0.000378205285  0.989265322340
  0.381250000000 -0.000405881822 -0.000405850047  0.989090906857
  0.383007812500 -0.000433336242 -0.000433304468  0.988904447072
  0.384765625000 -0.000460599448 -0.000460567673  0.988706028627
  0.386523437500 -0.000487670583 -0.000487638808  0.988495737164
  0.388281250000 -0.000514548804 -0.000514517030  0.988273658320
  0.390039062500 -0.000541233287 -0.000541201512  0.988039877727
  0.391796875000 -0.000567723218 -0.000567691443  0.987794481017
  0.393554687500 -0.000594017800 -0.000593986025  0.987537553819
  0.395312500000 -0.000620116251 -0.000620084476  0.987269181755
  0.397070312500 -0.000646017800 -0.000645986025  0.986989450450
  0.398828125000 -0.000671721691 -0.000671689916  0.986698445519
  0.400585937500 -0.000697227181 -0.000697195406  0.986396252581
  0.402343750000 -0.000722533540 -0.000722501765  0.986082957246
  0.404101562500 -0.000747640049 -0.000747608275  0.985758645125
  0.405859375000 -0.000772546005 -0.000772514230  0.985423401823
  0.407617187500 -0.000797250712 -0.000797218937  0.985077312944
  0.409375000000 -0.000821753490 -0.000821721715  0.984720464089
  0.411132812500 -0.000846053668 -0.000846021893  0.984352940853
  0.412890625000 -0.000870150588 -0.000870118813  0.983974828832
  0.414648437500 -0.000894043601 -0.000894011826  0.983586213617
  0.416406250000 -0.000917732071 -0.000917700296  0.983187180795
  0.418164062500 -0.000941215371 -0.000941183596  0.982777815951
  0.419921875000 -0.000964492885 -0.000964461110  0.982358204668
  0.421679687500 -0.000987564007 -0.000987532233  0.981928432523
  0.423437500000 -0.001010428142 -0.001010396367  0.981488585093
  0.425195312500 -0.001033084701 -0.001033052927  0.981038747950
  0.426953125000 -0.001055533110 -0.001055501335  0.980579006665
  0.428710937500 -0.001077772800 -0.001077741025  0.980109446802
  0.430468750000 -0.001099803213 -0.001099771438  0.979630153927
  0.432226562500 -0.001121623799 -0.001121592024  0.979141213598
  0.433984375000 -0.001143234018 -0.001143202243  0.978642711374
  0.435742187500 -0.001164633338 -0.001164601563  0.978134732809
  0.437500000000 -0.001185821235 -0.001185789460  0.977617363454
  0.439257812500 -0.001206797194 -0.001206765419  0.977090688857
  0.441015625000 -0.001227560707 -0.001227528932  0.976554794564
  0.442773437500 -0.001248111276 -0.001248079501  0.976009766115
  0.444531250000 -0.001268448407 -0.001268416632  0.975455689051
  0.446289062500 -0.001288571618 -0.001288539843  0.974892648907
  0.448046875000 -0.001308480432 -0.001308448657  0.974320731216
  0.449804687500 -0.001328174379 -0.001328142604  0.973740021507
  0.451562500000 -0.001347652998 -0.001347621223  0.973150605308
  0.453320312500 -0.001366915833 -0.001366884059  0.972552568142
  0.455078125000 -0.001385962437 -0.001385930662  0.971945995529
  0.456835937500 -0.001404792368 -0.001404760593  0.971330972987
  0.458593750000 -0.001423405191 -0.001423373416  0.970707586031
  0.460351562500 -0.001441800478 -0.001441768703  0.970075920172
  0.462109375000 -0.001459977807 -0.001459946032  0.969436060918
  0.463867187500 -0.001477936763 -0.001477904988  0.968788093774
  0.465625000000 -0.001495676936 -0.001495645161  0.968132104243
  0.467382812500 -0.001513197923 -0.001513166149  0.967468177824
  0.469140625000 -0.001530499327 -0.001530467552  0.966796400013
  0.470898437500 -0.001547580756 -0.001547548981  0.966116856303
  0.472656250000 -0.001564441823 -0.001564410048  0.965429632183
  0.474414062500 -0.001581082149 -0.001581050374  0.964734813141
  0.476171875000 -0.001597501359 -0.001597469584  0.964032484661
  0.477929687500 -0.001613699082 -0.001613667308  0.963322732223
  0.479687500000 -0.001629674956 -0.001629643182  0.962605641306
  0.481445312500 -0.001645428621 -0.001645396847  0.961881297383
  0.483203125000 -0.001660959724 -0.001660927949  0.961149785926
  0.484960937500 -0.001676267914 -0.001676236139  0.960411192404
  0.486718750000 -0.001691352849 -0.001691321075  0.959665602282
  0.488476562500 -0.001706214190 -0.001706182415  0.958913101023
  0.490234375000 -0.001720851601 -0.001720819826  0.958153774085
  0.491992187500 -0.001735264754 -0.001735232979  0.957387706926
  0.493750000000 -0.001749453322 -0.001749421547  0.956614984999
  0.495507812500 -0.001763416986 -0.001763385211  0.955835693753
  0.497265625000 -0.001777155430 -0.001777123655  0.955049918636
  0.499023437500 -0.001790668340 -0.001790636565  0.954257745092
  0.500781250000 -0.001803955411 -0.001803923636  0.953459258561
  0.502539062500 -0.001817016337 -0.001816984562  0.952654544482
  0.504296875000 -0.001829850821 -0.001829819046  0.951843688290
  0.506054687500 -0.001842458566 -0.001842426791  0.951026775415
  0.507812500000 -0.001854839281 -0.001854807507  0.950203891288
  0.509570312500 -0.001866992680 -0.001866960905  0.949375121334
  0.511328125000 -0.001878918478 -0.001878886703  0.948540550975
  0.513085937500 -0.001890616395 -0.001890584620  0.947700265631
  0.514843750000 -0.001902086156 -0.001902054381  0.946854350718
  0.516601562500 -0.001913327488 -0.001913295713  0.946002891650
  0.518359375000 -0.001924340122 -0.001924308347  0.945145973837
  0.520117187500 -0.001935123793 -0.001935092018  0.944283682687
  0.521875000000 -0.001945678239 -0.001945646464  0.943416103603
  0.523632812500 -0.001956003201 -0.001955971426  0.942543321988
  0.525390625000 -0.001966098425 -0.001966066650  0.941665423238
  0.527148437500 -0.001975963658 -0.001975931883  0.940782492750
  0.528906250000 -0.001985598652 -0.001985566877  0.939894615915
  0.530664062500 -0.001995003161 -0.001994971387  0.939001878122
  0.532421875000 -0.002004176944 -0.002004145169  0.938104364757
  0.534179687500 -0.002013119761 -0.002013087986  0.937202161203
  0.535937500000 -0.002021831375 -0.002021799600  0.936295352840
  0.537695312500 -0.002030311554 -0.002030279779  0.935384025044
  0.539453125000 -0.002038560067 -0.002038528292  0.934468263189
  0.541210937500 -0.002046576687 -0.002046544912  0.933548152646
  0.542968750000 -0.002054361189 -0.002054329414  0.932623778782
  0.544726562500 -0.002061913352 -0.002061881577  0.931695226962
  0.546484375000 -0.002069232957 -0.002069201182  0.930762582547
  0.548242187500 -0.002076319786 -0.002076288011  0.929825930896
  0.550000000000 -0.002083173627 -0.002083141853  0.928885357364
  0.551757812500 -0.002089794269 -0.002089762494  0.927940947302
  0.553515625000 -0.002096181503 -0.002096149728  0.926992786061
  0.555273437500 -0.002102335123 -0.002102303348  0.926040958987
  0.557031250000 -0.002108254926 -0.002108223151  0.925085551422
  0.558789062500 -0.002113940710 -0.002113908935  0.924126648707
  0.560546875000 -0.002119392277 -0.002119360502  0.923164336178
  0.562304687500 -0.002124609432 -0.002124577657  0.922198699170
  0.564062500000 -0.002129591979 -0.002129560204  0.921229823013
  0.565820312500 -0.002134339728 -0.002134307953  0.920257793035
  0.567578125000 -0.002138852489 -0.002138820714  0.919282694561
  0.569335937500 -0.002143130075 -0.002143098301  0.918304612913
  0.571093750000 -0.002147172302 -0.002147140527  0.917323633408
  0.572851562500 -0.002150978986 -0.002150947212  0.916339841364
  0.574609375000 -0.002154549948 -0.002154518173  0.915353322092
  0.576367187500 -0.002157885008 -0.002157853233  0.914364160902
  0.578125000000 -0.002160983991 -0.002160952216  0.913372443100
  0.579882812500 -0.002163846721 -0.002163814946  0.912378253989
  0.581640625000 -0.002166473027 -0.002166441252  0.911381678870
  0.583398437500 -0.002168862738 -0.002168830963  0.910382803040
  0.585156250000 -0.002171015687 -0.002170983912  0.909381711794
  0.586914062500 -0.002172931705 -0.002172899930  0.908378490422
  0.588671875000 -0.002174610629 -0.002174578854  0.907373224212
  0.590429687500 -0.002176052297 -0.002176020522  0.906365998449
  0.592187500000 -0.002177256546 -0.002177224771  0.905356898416
  0.593945312500 -0.002178223218 -0.002178191444  0.904346009391
  0.595703125000 -0.002178952156 -0.002178920382  0.903333416650
  0.597460937500 -0.002179443205 -0.002179411430  0.902319205466
  0.599218750000 -0.002179696209 -0.002179664434  0.901303461109
  0.600976562500 -0.002179711018 -0.002179679243  0.900286268845
  0.602734375000 -0.002179487480 -0.002179455705  0.899267713938
  0.604492187500 -0.002179025447 -0.002178993672  0.898247881648
  0.606250000000 -0.002178324771 -0.002178292996  0.897226857233
  0.608007812500 -0.002177385308 -0.002177353533  0.896204725948
  0.609765625000 -0.002176206913 -0.002176175138  0.895181573044
  0.611523437500 -0.002174789443 -0.002174757668  0.894157483768
  0.613281250000 -0.002173132758 -0.002173100983  0.893132543368
  0.615039062500 -0.002171236718 -0.002171204943  0.892106837083
  0.616796875000 -0.002169101186 -0.002169069411  0.891080450155
  0.618554687500 -0.002166726025 -0.002166694250  0.890053467819
  0.620312500000 -0.002164111100 -0.002164079325  0.889025975308
  0.622070312500 -0.002161256277 -0.002161224502  0.887998057851
  0.623828125000 -0.002158161425 -0.002158129650  0.886969800677
  0.625585937500 -0.002154826412 -0.002154794637  0.885941289009
  0.627343750000 -0.002151251110 -0.002151219335  0.884912608068
  0.629101562500 -0.002147435390 -0.002147403615  0.883883843071
  0.630859375000 -0.002143379125 -0.002143347350  0.882855079234
  0.632617187500 -0.002139082191 -0.002139050416  0.881826401767
  0.634375000000 -0.002134544463 -0.002134512688  0.880797895881
  0.636132812500 -0.002129765818 -0.002129734043  0.879769646779
