radius      S_expected         S_actual            Error 
  0.100000000000  0.058329769669  0.058303845270  0.728460220502
  0.106818181818  0.057835363363  0.057848323804  0.738267549882
  0.113636363636  0.056743550566  0.056756503668  0.747982680814
  0.120454545455  0.055173234511  0.055186179834  0.757604262297
  0.127272727273  0.053217827510  0.053230764608  0.767130943849
  0.134090909091  0.050951730845  0.050964659263  0.776561375156
  0.140909090909  0.048434933380  0.048447852656  0.785894206074
  0.147727272727  0.045716336702  0.045729246367  0.795128086630
  0.154545454545  0.042836200060  0.042849099637  0.804261667020
  0.161363636364  0.039827965450  0.039840854454  0.813293597610
  0.168181818182  0.036719638746  0.036732516686  0.822222528940
  0.175000000000  0.033534847964  0.033547714342  0.831047111716
  0.181818181818  0.030293663400  0.030306517711  0.839765996819
  0.188636363636  0.027013239898  0.027026081632  0.848377835300
  0.195454545455  0.023708324686  0.023721153324  0.856881278382
  0.202272727273  0.020391662490  0.020404477508  0.865274977460
  0.209090909091  0.017074321379  0.017087122248  0.873557584103
  0.215909090909  0.013765956869  0.013778743053  0.881727750052
  0.222727272727  0.010475027505  0.010487798464  0.889784127224
  0.229545454545  0.007208972023  0.007221727209  0.897725367711
  0.236363636364  0.003974355836  0.003987094698  0.905550123780
  0.243181818182  0.000776992885  0.000789714867  0.913257047878
  0.250000000000 -0.002377952469 -0.002365247928  0.920844792628
  0.256818181818 -0.005485879772 -0.005473193236  0.928312010837
  0.263636363636 -0.008542680111 -0.008530012149  0.935657355491
  0.270454545455 -0.011544674694 -0.011532025878  0.942879479764
  0.277272727273 -0.014488562493 -0.014475933398  0.949977037016
  0.284090909091 -0.017371375428 -0.017358766632  0.956948680797
  0.290909090909 -0.020190439856 -0.020177851939  0.963793064853
  0.297727272727 -0.022943343348 -0.022930776892  0.970508843126
  0.304545454545 -0.025627905935 -0.025615361525  0.977094669763
  0.311363636364 -0.028242155126 -0.028229633346  0.983549199119
  0.318181818182 -0.030784304138 -0.030771805574  0.989871085765
  0.325000000000 -0.033252732867 -0.033240258105  0.996058984495
  0.331818181818 -0.035645971201 -0.035633520827  1.002111550334
  0.338636363636 -0.037962684347 -0.037950258945  1.008027438551
  0.345454545455 -0.040201659892 -0.040189260047  1.013805304667
  0.352272727273 -0.042361796364 -0.042349422658  1.019443804474
  0.359090909091 -0.044442093092 -0.044429746106  1.024941594048
  0.365909090909 -0.046441641196 -0.046429321507  1.030297329768
  0.372727272727 -0.048359615558 -0.048347323741  1.035509668340
  0.379545454545 -0.050195267660 -0.050183004285  1.040577266822
  0.386363636364 -0.051947919164 -0.051935684796  1.045498782654
  0.393181818182 -0.053616956164 -0.053604751366  1.050272873692
  0.400000000000 -0.055201824016 -0.055189649343  1.054898198249
  0.406818181818 -0.056702022676 -0.056689878677  1.059373415144
  0.413636363636 -0.058117102500 -0.058104989717  1.063697183755
  0.420454545455 -0.059446660436 -0.059434579405  1.067868164085
  0.427272727273 -0.060690336582 -0.060678287831  1.071885016833
  0.434090909091 -0.061847811051 -0.061835795097  1.075746403485
  0.440909090909 -0.062918801122 -0.062906818476  1.079450986413
  0.447727272727 -0.063903058643 -0.063891109804  1.082997428989
  0.454545454545 -0.064800367656 -0.064788453112  1.086384395730
  0.461363636364 -0.065610542219 -0.065598662449  1.089610552447
  0.468181818182 -0.066333424419 -0.066321579887  1.092674566437
  0.475000000000 -0.066968882530 -0.066957073690  1.095575106697
  0.481818181818 -0.067516809331 -0.067505036623  1.098310844169
  0.488636363636 -0.067977120542 -0.067965384390  1.100880452040
  0.495454545455 -0.068349753383 -0.068338054200  1.103282606073
  0.502272727273 -0.068634665241 -0.068623003422  1.105515985006
  0.509090909091 -0.068831832422 -0.068820208346  1.107579271009
  0.515909090909 -0.068941248999 -0.068929663030  1.109471150219
  0.522727272727 -0.068962925734 -0.068951378218  1.111190313357
  0.529545454545 -0.068896889070 -0.068885380334  1.112735456457
  0.536363636364 -0.068743180184 -0.068731710537  1.114105281700
  0.543181818182 -0.068501854104 -0.068490423836  1.115298498396
  0.550000000000 -0.068172978872 -0.068161588252  1.116313824118
  0.556818181818 -0.067756634757 -0.067745284034  1.117149986030
  0.563636363636 -0.067252913512 -0.067241602914  1.117805722419
  0.570454545455 -0.066661917669 -0.066650647402  1.118279784492
  0.577272727273 -0.065983759871 -0.065972530118  1.118570938454
  0.584090909091 -0.065218562233 -0.065207373154  1.118677967930
  0.590909090909 -0.064366455735 -0.064355307468  1.118599676782
  0.597727272727 -0.063427579646 -0.063416472302  1.118334892382
  0.604545454545 -0.062402080964 -0.062391014630  1.117882469423
  0.611363636364 -0.061290113883 -0.061279088623  1.117241294339
  0.618181818182 -0.060091839285 -0.060080855135  1.116410290454
  0.625000000000 -0.058807424244 -0.058796481213  1.115388423963
  0.631818181818 -0.057437041547 -0.057426139620  1.114174710876
  0.638636363636 -0.055980869241 -0.055970008374  1.112768225089
  0.645454545455 -0.054439090179 -0.054428270301  1.111168107764
  0.652272727273 -0.052811891595 -0.052801112606  1.109373578207
  0.659090909091 -0.051099464680 -0.051088726452  1.107383946505
  0.665909090909 -0.049302004176 -0.049291306553  1.105198628178
  0.672727272727 -0.047419707977 -0.047409050775  1.102817161176
  0.679545454545 -0.045452776746 -0.045442159749  1.100239225575
  0.686363636364 -0.043401413529 -0.043390836494  1.097464666382
  0.693181818182 -0.041265823395 -0.041255286047  1.094493519940
  0.700000000000 -0.039046213068 -0.039035715104  1.091326044440
  0.706818181818 -0.036742790576 -0.036732331664  1.087962755175
  0.713636363636 -0.034355764909 -0.034345344684  1.084404465192
  0.720454545455 -0.031885345673 -0.031874963742  1.080652332119
  0.727272727273 -0.029331742764 -0.029321398702  1.076707911998
  0.734090909091 -0.026695166039 -0.026684859393  1.072573221045
  0.740909090909 -0.023975824999 -0.023965555285  1.068250806323
  0.747727272727 -0.021173928476 -0.021163695179  1.063743826381
  0.754545454545 -0.018289684324 -0.018279486899  1.059056142911
  0.761363636364 -0.015323299118 -0.015313136993  1.054192424502
  0.768181818182 -0.012274977863 -0.012264850434  1.049158263434
  0.775000000000 -0.009144923699 -0.009134830333  1.043960306306
  0.781818181818 -0.005933337620 -0.005923277654  1.038606398950
  0.788636363636 -0.002640418194 -0.002630390939  1.033105745518
  0.795454545455  0.000733638705  0.000743633968  1.027469080843
  0.802272727273  0.004188640168  0.004198604185  1.021708853916
  0.809090909091  0.007724396510  0.007734330056  1.015839418556
  0.815909090909  0.011340721523  0.011350625400  1.009877224885
  0.822727272727  0.015037432730  0.015047307763  1.003841001703
  0.829545454545  0.018814351619  0.018824198663  0.997751915192
  0.836363636364  0.022671303888  0.022681123822  0.991633682957
  0.843181818182  0.026608119672  0.026617913399  0.985512613983
  0.850000000000  0.030624633764  0.030634402211  0.979417534058
  0.856818181818  0.034720685837  0.034730429954  0.973379542001
  0.863636363636  0.038896120651  0.038905841412  0.967431524293
  0.870454545455  0.043150788261  0.043160486660  0.961607333962
  0.877272727273  0.047484544211  0.047494221263  0.955940514060
  0.884090909091  0.051897249722  0.051906906464  0.950462417888
  0.890909090909  0.056388771883  0.056398409369  0.945199549897
  0.897727272727  0.060958983818  0.060968603120  0.940169928719
  0.904545454545  0.065607764860  0.065617367068  0.935378267280
  0.911363636364  0.070335000708  0.070344586929  0.930809791796
  0.918181818182  0.075140583584  0.075150154940  0.926422607933
  0.925000000000  0.080024412378  0.080033970004  0.922138703273
  0.931818181818  0.084986392782  0.084995937827  0.917833983143
  0.938636363636  0.090026437424  0.090035971049  0.913328167176
  0.945454545455  0.095144465988  0.095153989366  0.908375795458
  0.952272727273  0.100340405329  0.100349919642  0.902659574017
  0.959090909091  0.105614189577  0.105623696015  0.895785894892
  0.965909090909  0.110965760235  0.110975259997  0.887278473931
  0.972727272727  0.116395066268  0.116404560559  0.876561591869
  0.979545454545  0.121902064183  0.121911554213  0.862937378300
  0.986363636364  0.127486718102  0.127496205085  0.845650637627
  0.993181818182  0.133148999826  0.133158484980  0.824335822237
  1.000000000000  0.138888888889  0.138869919069  0.800000000225
