radius      S_expected         S_actual            Error 
  0.100000000000  0.000000000000  0.000000000000  0.728460218607
  0.101744186047  0.000000073722  0.000000073722  0.727066603298
  0.103488372093  0.000000146102  0.000000146102  0.725676222796
  0.105232558140  0.000000217144  0.000000217144  0.724289089521
  0.106976744186  0.000000286856  0.000000286856  0.722905215890
  0.108720930233  0.000000355245  0.000000355245  0.721524614324
  0.110465116279  0.000000422316  0.000000422316  0.720147297239
  0.112209302326  0.000000488077  0.000000488077  0.718773277055
  0.113953488372  0.000000552534  0.000000552534  0.717402566190
  0.115697674419  0.000000615693  0.000000615693  0.716035177064
  0.117441860465  0.000000677560  0.000000677560  0.714671122094
  0.119186046512  0.000000738143  0.000000738143  0.713310413699
  0.120930232558  0.000000797448  0.000000797448  0.711953064298
  0.122674418605  0.000000855482  0.000000855482  0.710599086310
  0.124418604651  0.000000912250  0.000000912250  0.709248492153
  0.126162790698  0.000000967759  0.000000967759  0.707901294245
  0.127906976744  0.000001022016  0.000001022016  0.706557505005
  0.129651162791  0.000001075028  0.000001075028  0.705217136852
  0.131395348837  0.000001126800  0.000001126800  0.703880202205
  0.133139534884  0.000001177340  0.000001177340  0.702546713481
  0.134883720930  0.000001226653  0.000001226653  0.701216683101
  0.136627906977  0.000001274747  0.000001274747  0.699890123481
  0.138372093023  0.000001321627  0.000001321627  0.698567047041
  0.140116279070  0.000001367300  0.000001367300  0.697247466199
  0.141860465116  0.000001411774  0.000001411774  0.695931393375
  0.143604651163  0.000001455053  0.000001455053  0.694618840985
  0.145348837209  0.000001497145  0.000001497145  0.693309821450
  0.147093023256  0.000001538057  0.000001538057  0.692004347187
  0.148837209302  0.000001577794  0.000001577794  0.690702430616
  0.150581395349  0.000001616363  0.000001616363  0.689404084154
  0.152325581395  0.000001653770  0.000001653770  0.688109320221
  0.154069767442  0.000001690023  0.000001690023  0.686818151234
  0.155813953488  0.000001725127  0.000001725127  0.685530589613
  0.157558139535  0.000001759089  0.000001759089  0.684246647776
  0.159302325581  0.000001791916  0.000001791916  0.682966338141
  0.161046511628  0.000001823614  0.000001823614  0.681689673127
  0.162790697674  0.000001854189  0.000001854189  0.680416665153
  0.164534883721  0.000001883648  0.000001883648  0.679147326637
  0.166279069767  0.000001911997  0.000001911997  0.677881669997
  0.168023255814  0.000001939243  0.000001939243  0.676619707653
  0.169767441860  0.000001965393  0.000001965393  0.675361452022
  0.171511627907  0.000001990452  0.000001990452  0.674106915523
  0.173255813953  0.000002014427  0.000002014427  0.672856110575
  0.175000000000  0.000002037325  0.000002037325  0.671609049596
  0.176744186047  0.000002059152  0.000002059152  0.670365745005
  0.178488372093  0.000002079915  0.000002079915  0.669126209220
  0.180232558140  0.000002099619  0.000002099619  0.667890454660
  0.181976744186  0.000002118273  0.000002118273  0.666658493742
  0.183720930233  0.000002135881  0.000002135881  0.665430338887
  0.185465116279  0.000002152450  0.000002152450  0.664206002511
  0.187209302326  0.000002167987  0.000002167987  0.662985497034
  0.188953488372  0.000002182499  0.000002182499  0.661768834873
  0.190697674419  0.000002195991  0.000002195991  0.660556028448
  0.192441860465  0.000002208470  0.000002208470  0.659347090177
  0.194186046512  0.000002219943  0.000002219943  0.658142032478
  0.195930232558  0.000002230416  0.000002230416  0.656940867769
  0.197674418605  0.000002239895  0.000002239895  0.655743608470
  0.199418604651  0.000002248387  0.000002248387  0.654550266997
  0.201162790698  0.000002255899  0.000002255899  0.653360855771
  0.202906976744  0.000002262436  0.000002262436  0.652175387209
  0.204651162791  0.000002268005  0.000002268005  0.650993873729
  0.206395348837  0.000002272613  0.000002272613  0.649816327750
  0.208139534884  0.000002276266  0.000002276266  0.648642761690
  0.209883720930  0.000002278971  0.000002278971  0.647473187968
  0.211627906977  0.000002280733  0.000002280733  0.646307619002
  0.213372093023  0.000002281560  0.000002281560  0.645146067209
  0.215116279070  0.000002281457  0.000002281457  0.643988545010
  0.216860465116  0.000002280432  0.000002280432  0.642835064820
  0.218604651163  0.000002278490  0.000002278490  0.641685639060
  0.220348837209  0.000002275638  0.000002275638  0.640540280147
  0.222093023256  0.000002271882  0.000002271882  0.639399000499
  0.223837209302  0.000002267229  0.000002267229  0.638261812534
  0.225581395349  0.000002261685  0.000002261685  0.637128728672
  0.227325581395  0.000002255257  0.000002255257  0.635999761329
  0.229069767442  0.000002247951  0.000002247951  0.634874922925
  0.230813953488  0.000002239773  0.000002239773  0.633754225876
  0.232558139535  0.000002230730  0.000002230730  0.632637682602
  0.234302325581  0.000002220828  0.000002220828  0.631525305521
  0.236046511628  0.000002210073  0.000002210073  0.630417107050
  0.237790697674  0.000002198473  0.000002198473  0.629313099607
  0.239534883721  0.000002186033  0.000002186033  0.628213295611
  0.241279069767  0.000002172759  0.000002172759  0.627117707479
  0.243023255814  0.000002158659  0.000002158659  0.626026347630
  0.244767441860  0.000002143738  0.000002143738  0.624939228482
  0.246511627907  0.000002128003  0.000002128003  0.623856362451
  0.248255813953  0.000002111461  0.000002111461  0.622777761957
  0.250000000000  0.000002094116  0.000002094116  0.621703439417
  0.251744186047  0.000002075977  0.000002075977  0.620633407249
  0.253488372093  0.000002057050  0.000002057050  0.619567677871
  0.255232558140  0.000002037339  0.000002037339  0.618506263700
  0.256976744186  0.000002016853  0.000002016853  0.617449177154
  0.258720930233  0.000001995598  0.000001995598  0.616396430651
  0.260465116279  0.000001973579  0.000001973579  0.615348036609
  0.262209302326  0.000001950804  0.000001950804  0.614304007445
  0.263953488372  0.000001927278  0.000001927278  0.613264355576
  0.265697674419  0.000001903007  0.000001903007  0.612229093421
  0.267441860465  0.000001877999  0.000001877999  0.611198233396
  0.269186046512  0.000001852260  0.000001852260  0.610171787919
  0.270930232558  0.000001825796  0.000001825796  0.609149769408
  0.272674418605  0.000001798612  0.000001798612  0.608132190280
  0.274418604651  0.000001770717  0.000001770717  0.607119062952
  0.276162790698  0.000001742115  0.000001742115  0.606110399841
  0.277906976744  0.000001712814  0.000001712814  0.605106213365
  0.279651162791  0.000001682819  0.000001682819  0.604106515940
  0.281395348837  0.000001652137  0.000001652137  0.603111319984
  0.283139534884  0.000001620775  0.000001620775  0.602120637914
  0.284883720930  0.000001588738  0.000001588738  0.601134482146
  0.286627906977  0.000001556033  0.000001556033  0.600152865098
  0.288372093023  0.000001522666  0.000001522666  0.599175799186
  0.290116279070  0.000001488643  0.000001488643  0.598203296827
  0.291860465116  0.000001453972  0.000001453972  0.597235370437
  0.293604651163  0.000001418658  0.000001418658  0.596272032434
  0.295348837209  0.000001382707  0.000001382707  0.595313295233
  0.297093023256  0.000001346126  0.000001346126  0.594359171252
  0.298837209302  0.000001308921  0.000001308921  0.593409672905
  0.300581395349  0.000001271098  0.000001271098  0.592464812610
  0.302325581395  0.000001232664  0.000001232664  0.591524602783
  0.304069767442  0.000001193625  0.000001193625  0.590589055839
  0.305813953488  0.000001153987  0.000001153987  0.589658184195
  0.307558139535  0.000001113757  0.000001113757  0.588732000266
  0.309302325581  0.000001072941  0.000001072941  0.587810516469
  0.311046511628  0.000001031545  0.000001031545  0.586893745217
  0.312790697674  0.000000989575  0.000000989575  0.585981698928
  0.314534883721  0.000000947038  0.000000947038  0.585074390016
  0.316279069767  0.000000903940  0.000000903940  0.584171830897
  0.318023255814  0.000000860287  0.000000860287  0.583274033985
  0.319767441860  0.000000816085  0.000000816085  0.582381011696
  0.321511627907  0.000000771341  0.000000771341  0.581492776444
  0.323255813953  0.000000726061  0.000000726061  0.580609340644
  0.325000000000  0.000000680252  0.000000680252  0.579730716710
  0.326744186047  0.000000633919  0.000000633919  0.578856917056
  0.328488372093  0.000000587069  0.000000587069  0.577987954098
  0.330232558140  0.000000539707  0.000000539707  0.577123840248
  0.331976744186  0.000000491841  0.000000491841  0.576264587920
  0.333720930233  0.000000443477  0.000000443477  0.575410209528
  0.335465116279  0.000000394620  0.000000394620  0.574560717485
  0.337209302326  0.000000345277  0.000000345277  0.573716124205
  0.338953488372  0.000000295455  0.000000295455  0.572876442100
  0.340697674419  0.000000245158  0.000000245158  0.572041683583
  0.342441860465  0.000000194395  0.000000194395  0.571211861067
  0.344186046512  0.000000143170  0.000000143170  0.570386986963
  0.345930232558  0.000000091490  0.000000091490  0.569567073683
  0.347674418605  0.000000039362  0.000000039362  0.568752133640
  0.349418604651 -0.000000013209 -0.000000013209  0.567942179245
  0.351162790698 -0.000000066216 -0.000000066216  0.567137222909
  0.352906976744 -0.000000119653 -0.000000119653  0.566337277042
  0.354651162791 -0.000000173514 -0.000000173514  0.565542354055
  0.356395348837 -0.000000227793 -0.000000227793  0.564752466359
  0.358139534884 -0.000000282483 -0.000000282483  0.563967626363
  0.359883720930 -0.000000337579 -0.000000337579  0.563187846477
  0.361627906977 -0.000000393073 -0.000000393073  0.562413139110
  0.363372093023 -0.000000448961 -0.000000448961  0.561643516671
  0.365116279070 -0.000000505235 -0.000000505235  0.560878991567
  0.366860465116 -0.000000561890 -0.000000561890  0.560119576208
  0.368604651163 -0.000000618919 -0.000000618919  0.559365283001
  0.370348837209 -0.000000676317 -0.000000676317  0.558616124353
  0.372093023256 -0.000000734076 -0.000000734076  0.557872112670
  0.373837209302 -0.000000792192 -0.000000792192  0.557133260358
  0.375581395349 -0.000000850657 -0.000000850657  0.556399579825
  0.377325581395 -0.000000909466 -0.000000909466  0.555671083474
  0.379069767442 -0.000000968612 -0.000000968612  0.554947783710
  0.380813953488 -0.000001028090 -0.000001028090  0.554229692938
  0.382558139535 -0.000001087892 -0.000001087892  0.553516823561
  0.384302325581 -0.000001148014 -0.000001148014  0.552809187981
  0.386046511628 -0.000001208449 -0.000001208449  0.552106798602
  0.387790697674 -0.000001269190 -0.000001269190  0.551409667825
  0.389534883721 -0.000001330232 -0.000001330232  0.550717808051
  0.391279069767 -0.000001391569 -0.000001391569  0.550031231681
  0.393023255814 -0.000001453194 -0.000001453194  0.549349951113
  0.394767441860 -0.000001515101 -0.000001515101  0.548673978747
  0.396511627907 -0.000001577284 -0.000001577284  0.548003326981
  0.398255813953 -0.000001639738 -0.000001639738  0.547338008212
  0.400000000000 -0.000001702455 -0.000001702455  0.546678034836
  0.401744186047 -0.000001765430 -0.000001765430  0.546023419249
  0.403488372093 -0.000001828657 -0.000001828657  0.545374173846
  0.405232558140 -0.000001892130 -0.000001892130  0.544730311020
  0.406976744186 -0.000001955842 -0.000001955842  0.544091843164
  0.408720930233 -0.000002019787 -0.000002019787  0.543458782670
  0.410465116279 -0.000002083960 -0.000002083960  0.542831141927
  0.412209302326 -0.000002148355 -0.000002148355  0.542208933327
  0.413953488372 -0.000002212964 -0.000002212964  0.541592169256
  0.415697674419 -0.000002277783 -0.000002277783  0.540980862102
  0.417441860465 -0.000002342805 -0.000002342805  0.540375024251
  0.419186046512 -0.000002408024 -0.000002408024  0.539774668087
  0.420930232558 -0.000002473434 -0.000002473434  0.539179805994
  0.422674418605 -0.000002539029 -0.000002539029  0.538590450354
  0.424418604651 -0.000002604803 -0.000002604803  0.538006613546
  0.426162790698 -0.000002670750 -0.000002670750  0.537428307951
  0.427906976744 -0.000002736864 -0.000002736864  0.536855545944
  0.429651162791 -0.000002803138 -0.000002803138  0.536288339902
  0.431395348837 -0.000002869568 -0.000002869568  0.535726702198
  0.433139534884 -0.000002936146 -0.000002936146  0.535170645205
  0.434883720930 -0.000003002867 -0.000003002867  0.534620181293
  0.436627906977 -0.000003069724 -0.000003069724  0.534075322831
  0.438372093023 -0.000003136712 -0.000003136712  0.533536082185
  0.440116279070 -0.000003203825 -0.000003203825  0.533002471720
  0.441860465116 -0.000003271057 -0.000003271057  0.532474503796
  0.443604651163 -0.000003338401 -0.000003338401  0.531952190776
  0.445348837209 -0.000003405852 -0.000003405852  0.531435545016
  0.447093023256 -0.000003473404 -0.000003473404  0.530924578872
  0.448837209302 -0.000003541050 -0.000003541050  0.530419304696
  0.450581395349 -0.000003608786 -0.000003608786  0.529919734839
  0.452325581395 -0.000003676604 -0.000003676604  0.529425881648
  0.454069767442 -0.000003744498 -0.000003744498  0.528937757468
  0.455813953488 -0.000003812464 -0.000003812464  0.528455374640
  0.457558139535 -0.000003880494 -0.000003880494  0.527978745504
  0.459302325581 -0.000003948584 -0.000003948584  0.527507882394
  0.461046511628 -0.000004016726 -0.000004016726  0.527042797643
  0.462790697674 -0.000004084916 -0.000004084916  0.526583503581
  0.464534883721 -0.000004153146 -0.000004153146  0.526130012531
  0.466279069767 -0.000004221412 -0.000004221412  0.525682336817
  0.468023255814 -0.000004289706 -0.000004289706  0.525240488755
  0.469767441860 -0.000004358024 -0.000004358024  0.524804480660
  0.471511627907 -0.000004426360 -0.000004426360  0.524374324840
  0.473255813953 -0.000004494706 -0.000004494706  0.523950033602
  0.475000000000 -0.000004563059 -0.000004563059  0.523531619247
  0.476744186047 -0.000004631411 -0.000004631411  0.523119094070
  0.478488372093 -0.000004699756 -0.000004699756  0.522712470362
  0.480232558140 -0.000004768089 -0.000004768089  0.522311760411
  0.481976744186 -0.000004836405 -0.000004836405  0.521916976498
  0.483720930233 -0.000004904696 -0.000004904696  0.521528130897
  0.485465116279 -0.000004972957 -0.000004972957  0.521145235880
  0.487209302326 -0.000005041183 -0.000005041183  0.520768303710
  0.488953488372 -0.000005109366 -0.000005109366  0.520397346645
  0.490697674419 -0.000005177503 -0.000005177503  0.520032376937
  0.492441860465 -0.000005245585 -0.000005245585  0.519673406831
  0.494186046512 -0.000005313609 -0.000005313609  0.519320448566
  0.495930232558 -0.000005381568 -0.000005381568  0.518973514372
  0.497674418605 -0.000005449455 -0.000005449455  0.518632616474
  0.499418604651 -0.000005517266 -0.000005517266  0.518297767087
  0.501162790698 -0.000005584994 -0.000005584994  0.517968978419
  0.502906976744 -0.000005652633 -0.000005652633  0.517646262671
  0.504651162791 -0.000005720178 -0.000005720178  0.517329632032
  0.506395348837 -0.000005787623 -0.000005787623  0.517019098686
  0.508139534884 -0.000005854962 -0.000005854962  0.516714674805
  0.509883720930 -0.000005922189 -0.000005922189  0.516416372551
  0.511627906977 -0.000005989299 -0.000005989299  0.516124204079
  0.513372093023 -0.000006056285 -0.000006056285  0.515838181529
  0.515116279070 -0.000006123141 -0.000006123141  0.515558317035
  0.516860465116 -0.000006189863 -0.000006189863  0.515284622715
  0.518604651163 -0.000006256444 -0.000006256444  0.515017110679
  0.520348837209 -0.000006322878 -0.000006322878  0.514755793022
  0.522093023256 -0.000006389160 -0.000006389160  0.514500681827
  0.523837209302 -0.000006455284 -0.000006455284  0.514251789166
  0.525581395349 -0.000006521243 -0.000006521243  0.514009127093
  0.527325581395 -0.000006587033 -0.000006587033  0.513772707652
  0.529069767442 -0.000006652647 -0.000006652647  0.513542542870
  0.530813953488 -0.000006718080 -0.000006718080  0.513318644757
  0.532558139535 -0.000006783326 -0.000006783326  0.513101025310
  0.534302325581 -0.000006848380 -0.000006848380  0.512889696508
  0.536046511628 -0.000006913235 -0.000006913235  0.512684670312
  0.537790697674 -0.000006977885 -0.000006977885  0.512485958666
  0.539534883721 -0.000007042326 -0.000007042326  0.512293573495
  0.541279069767 -0.000007106550 -0.000007106550  0.512107526703
  0.543023255814 -0.000007170554 -0.000007170554  0.511927830176
  0.544767441860 -0.000007234330 -0.000007234330  0.511754495777
  0.546511627907 -0.000007297873 -0.000007297873  0.511587535349
  0.548255813953 -0.000007361178 -0.000007361178  0.511426960711
  0.550000000000 -0.000007424238 -0.000007424238  0.511272783659
  0.551744186047 -0.000007487049 -0.000007487049  0.511125015963
  0.553488372093 -0.000007549604 -0.000007549604  0.510983669369
  0.555232558140 -0.000007611897 -0.000007611897  0.510848755595
  0.556976744186 -0.000007673923 -0.000007673923  0.510720286333
  0.558720930233 -0.000007735677 -0.000007735677  0.510598273245
  0.560465116279 -0.000007797152 -0.000007797152  0.510482727965
  0.562209302326 -0.000007858344 -0.000007858344  0.510373662092
  0.563953488372 -0.000007919245 -0.000007919245  0.510271087198
  0.565697674419 -0.000007979851 -0.000007979851  0.510175014817
  0.567441860465 -0.000008040157 -0.000008040157  0.510085456451
  0.569186046512 -0.000008100155 -0.000008100155  0.510002423565
  0.570930232558 -0.000008159841 -0.000008159841  0.509925927585
  0.572674418605 -0.000008219209 -0.000008219209  0.509855979899
  0.574418604651 -0.000008278254 -0.000008278254  0.509792591856
  0.576162790698 -0.000008336970 -0.000008336970  0.509735774759
  0.577906976744 -0.000008395350 -0.000008395350  0.509685539871
  0.579651162791 -0.000008453391 -0.000008453391  0.509641898407
  0.581395348837 -0.000008511085 -0.000008511085  0.509604861534
  0.583139534884 -0.000008568427 -0.000008568427  0.509574440372
  0.584883720930 -0.000008625413 -0.000008625413  0.509550645988
  0.586627906977 -0.000008682035 -0.000008682035  0.509533489397
  0.588372093023 -0.000008738289 -0.000008738289  0.509522981556
  0.590116279070 -0.000008794170 -0.000008794170  0.509519133367
  0.591860465116 -0.000008849670 -0.000008849670  0.509521955672
  0.593604651163 -0.000008904786 -0.000008904786  0.509531459250
  0.595348837209 -0.000008959510 -0.000008959510  0.509547654815
  0.597093023256 -0.000009013839 -0.000009013839  0.509570553015
  0.598837209302 -0.000009067766 -0.000009067766  0.509600164428
  0.600581395349 -0.000009121285 -0.000009121285  0.509636499559
  0.602325581395 -0.000009174392 -0.000009174392  0.509679568837
  0.604069767442 -0.000009227080 -0.000009227080  0.509729382614
  0.605813953488 -0.000009279344 -0.000009279344  0.509785951160
  0.607558139535 -0.000009331178 -0.000009331178  0.509849284660
  0.609302325581 -0.000009382578 -0.000009382578  0.509919393212
  0.611046511628 -0.000009433537 -0.000009433537  0.509996286822
  0.612790697674 -0.000009484050 -0.000009484050  0.510079975400
  0.614534883721 -0.000009534111 -0.000009534111  0.510170468760
  0.616279069767 -0.000009583716 -0.000009583716  0.510267776610
  0.618023255814 -0.000009632858 -0.000009632858  0.510371908555
  0.619767441860 -0.000009681531 -0.000009681531  0.510482874086
  0.621511627907 -0.000009729732 -0.000009729732  0.510600682581
  0.623255813953 -0.000009777453 -0.000009777453  0.510725343297
  0.625000000000 -0.000009824690 -0.000009824690  0.510856865369
  0.626744186047 -0.000009871437 -0.000009871437  0.510995257800
  0.628488372093 -0.000009917688 -0.000009917688  0.511140529461
  0.630232558140 -0.000009963439 -0.000009963439  0.511292689082
  0.631976744186 -0.000010008683 -0.000010008683  0.511451745250
