radius      S_expected         S_actual            Error 
  0.100000000000 -0.000000000000  0.000000000000  0.066666672758
  0.100439453125 -0.000875900749 -0.000875849927  0.000175373294
  0.100878906250 -0.002358572057 -0.002358605901  0.000350173204
  0.101318359375 -0.004440901551 -0.004440935085  0.000524400694
  0.101757812500 -0.007114863073 -0.007114896178  0.000698056832
  0.102197265625 -0.010371549614 -0.010371582172  0.000871142815
  0.102636718750 -0.014201208812 -0.014201240707  0.001043659962
  0.103076171875 -0.018593280712 -0.018593311834  0.001215609707
  0.103515625000 -0.023536437510 -0.023536467753  0.001386993593
  0.103955078125 -0.029018624968 -0.029018654232  0.001557813270
  0.104394531250 -0.035027105219 -0.035027133408  0.001728070483
  0.104833984375 -0.041548500687 -0.041548527714  0.001897767065
  0.105273437500 -0.048568838847 -0.048568864630  0.002066904934
  0.105712890625 -0.056073597582 -0.056073622047  0.002235486079
  0.106152343750 -0.064047750886 -0.064047773965  0.002403512554
  0.106591796875 -0.072475814703 -0.072475836338  0.002570986470
  0.107031250000 -0.081341892702 -0.081341912841  0.002737909985
  0.107470703125 -0.090629721780 -0.090629740382  0.002904285297
  0.107910156250 -0.100322717157 -0.100322734186  0.003070114633
  0.108349609375 -0.110404016880 -0.110404032309  0.003235400243
  0.108789062500 -0.120856525615 -0.120856539427  0.003400144390
  0.109228515625 -0.131662957614 -0.131662969798  0.003564349343
  0.109667968750 -0.142805878728 -0.142805889282  0.003728017369
  0.110107421875 -0.154267747391 -0.154267756318  0.003891150727
  0.110546875000 -0.166030954478 -0.166030961792  0.004053751661
  0.110986328125 -0.178077861982 -0.178077867702  0.004215822391
  0.111425781250 -0.190390840424 -0.190390844576  0.004377365113
  0.111865234375 -0.202952304957 -0.202952307573  0.004538381988
  0.112304687500 -0.215744750112 -0.215744751230  0.004698875141
  0.112744140625 -0.228750783136 -0.228750782800  0.004858846656
  0.113183593750 -0.241953155900 -0.241953154157  0.005018298569
  0.113623046875 -0.255334795327 -0.255334792231  0.005177232872
  0.114062500000 -0.268878832331 -0.268878827937  0.005335651504
  0.114501953125 -0.282568629230 -0.282568623600  0.005493556352
  0.114941406250 -0.296387805625 -0.296387798821  0.005650949247
  0.115380859375 -0.310320262715 -0.310320254803  0.005807831965
  0.115820312500 -0.324350206063 -0.324350197110  0.005964206227
  0.116259765625 -0.338462166770 -0.338462156846  0.006120073692
  0.116699218750 -0.352641021092 -0.352641010266  0.006275435967
  0.117138671875 -0.366872008465 -0.366871996809  0.006430294597
  0.117578125000 -0.381140747976 -0.381140735560  0.006584651074
  0.118017578125 -0.395433253259 -0.395433240154  0.006738506832
  0.118457031250 -0.409735945852 -0.409735932128  0.006891863250
  0.118896484375 -0.424035667022 -0.424035652749  0.007044721653
  0.119335937500 -0.438319688081 -0.438319673326  0.007197083312
  0.119775390625 -0.452575719216 -0.452575704048  0.007348949450
  0.120214843750 -0.466791916878 -0.466791901360  0.007500321237
  0.120654296875 -0.480956889743 -0.480956873938  0.007651199796
  0.121093750000 -0.495059703296 -0.495059687265  0.007801586204
  0.121533203125 -0.509089883085 -0.509089866887  0.007951481495
  0.121972656250 -0.523037416678 -0.523037400368  0.008100886658
  0.122412109375 -0.536892754372 -0.536892738003  0.008249802641
  0.122851562500 -0.550646808723 -0.550646792347  0.008398230357
  0.123291015625 -0.564290952930 -0.564290936593  0.008546170678
  0.123730468750 -0.577817018139 -0.577817001886  0.008693624443
  0.124169921875 -0.591217289728 -0.591217273602  0.008840592459
  0.124609375000 -0.604484502628 -0.604484486666  0.008987075499
  0.125048828125 -0.617611835737 -0.617611819976  0.009133074309
  0.125488281250 -0.630592905502 -0.630592889976  0.009278589606
  0.125927734375 -0.643421758717 -0.643421743455  0.009423622081
  0.126367187500 -0.656092864607 -0.656092849637  0.009568172403
  0.126806640625 -0.668601106254 -0.668601091601  0.009712241215
  0.127246093750 -0.680941771439 -0.680941757124  0.009855829142
  0.127685546875 -0.693110542937 -0.693110528980  0.009998936787
  0.128125000000 -0.705103488355 -0.705103474774  0.010141564735
  0.128564453125 -0.716917049542 -0.716917036350  0.010283713556
  0.129003906250 -0.728548031644 -0.728548018854  0.010425383802
  0.129443359375 -0.739993591854 -0.739993579476  0.010566576014
  0.129882812500 -0.751251227912 -0.751251215955  0.010707290716
  0.130322265625 -0.762318766399 -0.762318754868  0.010847528421
  0.130761718750 -0.773194350879 -0.773194339779  0.010987289634
  0.131201171875 -0.783876429928 -0.783876419260  0.011126574846
  0.131640625000 -0.794363745107 -0.794363734874  0.011265384540
  0.132080078125 -0.804655318903 -0.804655309104  0.011403719193
  0.132519531250 -0.814750442685 -0.814750433318  0.011541579271
  0.132958984375 -0.824648664707 -0.824648655769  0.011678965235
  0.133398437500 -0.834349778202 -0.834349769688  0.011815877542
  0.133837890625 -0.843853809577 -0.843853801483  0.011952316640
  0.134277343750 -0.853161006757 -0.853160999076  0.012088282974
  0.134716796875 -0.862271827694 -0.862271820418  0.012223776986
  0.135156250000 -0.871186929060 -0.871186922183  0.012358799113
  0.135595703125 -0.879907155162 -0.879907148674  0.012493349789
  0.136035156250 -0.888433527071 -0.888433520964  0.012627429446
  0.136474609375 -0.896767232010 -0.896767226274  0.012761038513
  0.136914062500 -0.904909612996 -0.904909607621  0.012894177418
  0.137353515625 -0.912862158753 -0.912862153728  0.013026846587
  0.137792968750 -0.920626493909 -0.920626489224  0.013159046445
  0.138232421875 -0.928204369488 -0.928204365132  0.013290777416
  0.138671875000 -0.935597653697 -0.935597649658  0.013422039924
  0.139111328125 -0.942808323013 -0.942808319281  0.013552834392
  0.139550781250 -0.949838453593 -0.949838450156  0.013683161243
  0.139990234375 -0.956690212974 -0.956690209821  0.013813020901
  0.140429687500 -0.963365852103 -0.963365849223  0.013942413789
  0.140869140625 -0.969867697667 -0.969867695049  0.014071340331
  0.141308593750 -0.976198144746 -0.976198142378  0.014199800953
  0.141748046875 -0.982359649760 -0.982359647631  0.014327796079
  0.142187500000 -0.988354723739 -0.988354721839  0.014455326136
  0.142626953125 -0.994185925885 -0.994185924203  0.014582391552
  0.143066406250 -0.999855857436 -0.999855855961  0.014708992754
  0.143505859375 -1.005367155828 -1.005367154550  0.014835130173
  0.143945312500 -1.010722489135 -1.010722488044  0.014960804239
  0.144384765625 -1.015924550805 -1.015924549891  0.015086015385
  0.144824218750 -1.020976054658 -1.020976053913  0.015210764044
  0.145263671875 -1.025879730165 -1.025879729579  0.015335050651
  0.145703125000 -1.030638317979 -1.030638317543  0.015458875641
  0.146142578125 -1.035254565727 -1.035254565431  0.015582239454
  0.146582031250 -1.039731224042 -1.039731223879  0.015705142528
  0.147021484375 -1.044071042847 -1.044071042808  0.015827585304
  0.147460937500 -1.048276767850 -1.048276767927  0.015949568224
  0.147900390625 -1.052351137280 -1.052351137467  0.016071091732
  0.148339843750 -1.056296878833 -1.056296879121  0.016192156274
  0.148779296875 -1.060116706814 -1.060116707198  0.016312762296
  0.149218750000 -1.063813319497 -1.063813319969  0.016432910246
  0.149658203125 -1.067389396660 -1.067389397214  0.016552600574
  0.150097656250 -1.070847597311 -1.070847597940  0.016671833732
  0.150537109375 -1.074190557586 -1.074190558285  0.016790610173
  0.150976562500 -1.077420888819 -1.077420889583  0.016908930350
  0.151416015625 -1.080541175767 -1.080541176589  0.017026794719
  0.151855468750 -1.083553974987 -1.083553975863  0.017144203738
  0.152294921875 -1.086461813367 -1.086461814291  0.017261157864
  0.152734375000 -1.089267186785 -1.089267187754  0.017377657559
  0.153173828125 -1.091972558907 -1.091972559916  0.017493703282
  0.153613281250 -1.094580360103 -1.094580361149  0.017609295497
  0.154052734375 -1.097092986490 -1.097092987567  0.017724434668
  0.154492187500 -1.099512799077 -1.099512800183  0.017839121259
  0.154931640625 -1.101842123024 -1.101842124155  0.017953355737
  0.155371093750 -1.104083246997 -1.104083248150  0.018067138570
  0.155810546875 -1.106238422619 -1.106238423790  0.018180470226
  0.156250000000 -1.108309864004 -1.108309865191  0.018293351175
  0.156689453125 -1.110299747388 -1.110299748588  0.018405781889
  0.157128906250 -1.112210210820 -1.112210212030  0.018517762840
  0.157568359375 -1.114043353944 -1.114043355162  0.018629294501
  0.158007812500 -1.115801237835 -1.115801239059  0.018740377346
  0.158447265625 -1.117485884914 -1.117485886141  0.018851011850
  0.158886718750 -1.119099278907 -1.119099280136  0.018961198492
  0.159326171875 -1.120643364874 -1.120643366102  0.019070937746
  0.159765625000 -1.122120049282 -1.122120050509  0.019180230093
  0.160205078125 -1.123531200130 -1.123531201353  0.019289076010
  0.160644531250 -1.124878647113 -1.124878648332  0.019397475979
  0.161083984375 -1.126164181839 -1.126164183051  0.019505430480
  0.161523437500 -1.127389558067 -1.127389559272  0.019612939995
  0.161962890625 -1.128556491999 -1.128556493195  0.019720005007
  0.162402343750 -1.129666662589 -1.129666663775  0.019826625999
  0.162841796875 -1.130721711887 -1.130721713062  0.019932803456
  0.163281250000 -1.131723245414 -1.131723246578  0.020038537862
  0.163720703125 -1.132672832554 -1.132672833707  0.020143829704
  0.164160156250 -1.133572006973 -1.133572008112  0.020248679467
  0.164599609375 -1.134422267054 -1.134422268180  0.020353087639
  0.165039062500 -1.135225076353 -1.135225077465  0.020457054708
  0.165478515625 -1.135981864070 -1.135981865167  0.020560581161
  0.165917968750 -1.136694025531 -1.136694026612  0.020663667489
  0.166357421875 -1.137362922689 -1.137362923754  0.020766314181
  0.166796875000 -1.137989884625 -1.137989885675  0.020868521726
  0.167236328125 -1.138576208069 -1.138576209103  0.020970290617
  0.167675781250 -1.139123157922 -1.139123158939  0.021071621344
  0.168115234375 -1.139631967785 -1.139631968785  0.021172514399
  0.168554687500 -1.140103840495 -1.140103841479  0.021272970274
  0.168994140625 -1.140539948665 -1.140539949632  0.021372989464
  0.169433593750 -1.140941435221 -1.140941436171  0.021472572460
  0.169873046875 -1.141309413950 -1.141309414883  0.021571719758
  0.170312500000 -1.141644970042 -1.141644970958  0.021670431850
  0.170751953125 -1.141949160634 -1.141949161533  0.021768709233
  0.171191406250 -1.142223015353 -1.142223016235  0.021866552402
  0.171630859375 -1.142467536858 -1.142467537722  0.021963961851
  0.172070312500 -1.142683701376 -1.142683702223  0.022060938078
  0.172509765625 -1.142872459244 -1.142872460074  0.022157481578
  0.172949218750 -1.143034735437 -1.143034736250  0.022253592849
  0.173388671875 -1.143171430096 -1.143171430893  0.022349272388
  0.173828125000 -1.143283419055 -1.143283419836  0.022444520692
  0.174267578125 -1.143371554359 -1.143371555123  0.022539338259
  0.174707031250 -1.143436664774 -1.143436665521  0.022633725588
  0.175146484375 -1.143479556298 -1.143479557030  0.022727683177
  0.175585937500 -1.143501012664 -1.143501013380  0.022821211525
  0.176025390625 -1.143501795829 -1.143501796530  0.022914311131
  0.176464843750 -1.143482646469 -1.143482647154  0.023006982496
  0.176904296875 -1.143444284455 -1.143444285125  0.023099226117
  0.177343750000 -1.143387409331 -1.143387409986  0.023191042497
  0.177783203125 -1.143312700778 -1.143312701418  0.023282432135
  0.178222656250 -1.143220819076 -1.143220819701  0.023373395532
  0.178662109375 -1.143112405553 -1.143112406164  0.023463933188
  0.179101562500 -1.142988083032 -1.142988083629  0.023554045606
  0.179541015625 -1.142848456265 -1.142848456848  0.023643733286
  0.179980468750 -1.142694112361 -1.142694112931  0.023732996730
  0.180419921875 -1.142525621209 -1.142525621766  0.023821836440
  0.180859375000 -1.142343535887 -1.142343536431  0.023910252918
  0.181298828125 -1.142148393068 -1.142148393599  0.023998246666
  0.181738281250 -1.141940713417 -1.141940713935  0.024085818188
  0.182177734375 -1.141721001974 -1.141721002480  0.024172967985
  0.182617187500 -1.141489748543 -1.141489749036  0.024259696562
  0.183056640625 -1.141247428054 -1.141247428536  0.024346004420
  0.183496093750 -1.140994500936 -1.140994501407  0.024431892064
  0.183935546875 -1.140731413466 -1.140731413925  0.024517359996
  0.184375000000 -1.140458598119 -1.140458598568  0.024602408722
  0.184814453125 -1.140176473913 -1.140176474350  0.024687038744
  0.185253906250 -1.139885446732 -1.139885447159  0.024771250568
  0.185693359375 -1.139585909659 -1.139585910076  0.024855044696
  0.186132812500 -1.139278243289 -1.139278243695  0.024938421635
  0.186572265625 -1.138962816039 -1.138962816436  0.025021381888
  0.187011718750 -1.138639984448 -1.138639984836  0.025103925960
  0.187451171875 -1.138310093477 -1.138310093855  0.025186054356
  0.187890625000 -1.137973476786 -1.137973477155  0.025267767582
  0.188330078125 -1.137630457026 -1.137630457386  0.025349066143
  0.188769531250 -1.137281346099 -1.137281346451  0.025429950544
  0.189208984375 -1.136926445433 -1.136926445776  0.025510421291
  0.189648437500 -1.136566046236 -1.136566046571  0.025590478890
  0.190087890625 -1.136200429748 -1.136200430075  0.025670123846
  0.190527343750 -1.135829867486 -1.135829867805  0.025749356666
  0.190966796875 -1.135454621481 -1.135454621793  0.025828177856
  0.191406250000 -1.135074944512 -1.135074944817  0.025906587923
  0.191845703125 -1.134691080329 -1.134691080626  0.025984587372
  0.192285156250 -1.134303263870 -1.134303264161  0.026062176710
  0.192724609375 -1.133911721477 -1.133911721761  0.026139356445
  0.193164062500 -1.133516671099 -1.133516671376  0.026216127083
  0.193603515625 -1.133118322493 -1.133118322764  0.026292489131
  0.194042968750 -1.132716877417 -1.132716877682  0.026368443097
  0.194482421875 -1.132312529821 -1.132312530080  0.026443989487
  0.194921875000 -1.131905466025 -1.131905466278  0.026519128809
  0.195361328125 -1.131495864898 -1.131495865146  0.026593861570
  0.195800781250 -1.131083898028 -1.131083898270  0.026668188279
  0.196240234375 -1.130669729889 -1.130669730125  0.026742109443
  0.196679687500 -1.130253517997 -1.130253518229  0.026815625570
  0.197119140625 -1.129835413069 -1.129835413296  0.026888737168
  0.197558593750 -1.129415559171 -1.129415559393  0.026961444744
  0.197998046875 -1.128994093859 -1.128994094076  0.027033748809
  0.198437500000 -1.128571148322 -1.128571148535  0.027105649869
  0.198876953125 -1.128146847514 -1.128146847724  0.027177148433
  0.199316406250 -1.127721310285 -1.127721310490  0.027248245011
  0.199755859375 -1.127294649501 -1.127294649702  0.027318940110
  0.200195312500 -1.126866972168 -1.126866972365  0.027389234239
  0.200634765625 -1.126438379544 -1.126438379737  0.027459127908
  0.201074218750 -1.126008967250 -1.126008967440  0.027528621625
  0.201513671875 -1.125578825376 -1.125578825563  0.027597715900
  0.201953125000 -1.125148038581 -1.125148038765  0.027666411242
  0.202392578125 -1.124716686190 -1.124716686371  0.027734708161
  0.202832031250 -1.124284842287 -1.124284842465  0.027802607165
  0.203271484375 -1.123852575801 -1.123852575976  0.027870108764
  0.203710937500 -1.123419950591 -1.123419950764  0.027937213469
  0.204150390625 -1.122987025527 -1.122987025697  0.028003921789
  0.204589843750 -1.122553854560 -1.122553854728  0.028070234233
  0.205029296875 -1.122120486801 -1.122120486967  0.028136151313
  0.205468750000 -1.121686966580 -1.121686966744  0.028201673537
  0.205908203125 -1.121253333515 -1.121253333678  0.028266801417
  0.206347656250 -1.120819622570 -1.120819622731  0.028331535463
  0.206787109375 -1.120385864108 -1.120385864266  0.028395876184
  0.207226562500 -1.119952083943 -1.119952084100  0.028459824093
  0.207666015625 -1.119518303391 -1.119518303546  0.028523379698
  0.208105468750 -1.119084539309 -1.119084539463  0.028586543512
  0.208544921875 -1.118650804137 -1.118650804290  0.028649316044
  0.208984375000 -1.118217105936 -1.118217106088  0.028711697806
  0.209423828125 -1.117783448417 -1.117783448569  0.028773689309
  0.209863281250 -1.117349830972 -1.117349831123  0.028835291064
  0.210302734375 -1.116916248698 -1.116916248848  0.028896503582
  0.210742187500 -1.116482692420 -1.116482692569  0.028957327375
  0.211181640625 -1.116049148705 -1.116049148854  0.029017762953
  0.211621093750 -1.115615599882 -1.115615600031  0.029077810830
  0.212060546875 -1.115182024048 -1.115182024196  0.029137471515
  0.212500000000 -1.114748395073 -1.114748395222  0.029196745521
  0.212939453125 -1.114314682612 -1.114314682760  0.029255633360
  0.213378906250 -1.113880852094 -1.113880852243  0.029314135543
  0.213818359375 -1.113446864726 -1.113446864875  0.029372252583
  0.214257812500 -1.113012677481 -1.113012677630  0.029429984992
  0.214697265625 -1.112578243089 -1.112578243239  0.029487333281
  0.215136718750 -1.112143510020 -1.112143510171  0.029544297963
  0.215576171875 -1.111708422470 -1.111708422621  0.029600879551
  0.216015625000 -1.111272920333 -1.111272920486  0.029657078557
  0.216455078125 -1.110836939181 -1.110836939334  0.029712895493
  0.216894531250 -1.110400410230 -1.110400410384  0.029768330873
  0.217333984375 -1.109963260310 -1.109963260466  0.029823385208
  0.217773437500 -1.109525411827 -1.109525411984  0.029878059012
  0.218212890625 -1.109086782723 -1.109086782882  0.029932352797
  0.218652343750 -1.108647286433 -1.108647286593  0.029986267077
  0.219091796875 -1.108206831832 -1.108206831994  0.030039802364
  0.219531250000 -1.107765323190 -1.107765323354  0.030092959172
  0.219970703125 -1.107322660114 -1.107322660280  0.030145738013
  0.220410156250 -1.106878737484 -1.106878737652  0.030198139402
  0.220849609375 -1.106433445396 -1.106433445566  0.030250163852
  0.221289062500 -1.105986669092 -1.105986669265  0.030301811875
  0.221728515625 -1.105538288888 -1.105538289063  0.030353083986
  0.222167968750 -1.105088180099 -1.105088180277  0.030403980698
  0.222607421875 -1.104636212960 -1.104636213141  0.030454502525
  0.223046875000 -1.104182252543 -1.104182252727  0.030504649981
  0.223486328125 -1.103726158666 -1.103726158853  0.030554423578
  0.223925781250 -1.103267785806 -1.103267785997  0.030603823833
  0.224365234375 -1.102806982998 -1.102806983192  0.030652851257
  0.224804687500 -1.102343593738 -1.102343593935  0.030701506366
  0.225244140625 -1.101877455874 -1.101877456075  0.030749789673
  0.225683593750 -1.101408401500 -1.101408401705  0.030797701692
  0.226123046875 -1.100936256839 -1.100936257049  0.030845242939
  0.226562500000 -1.100460842129 -1.100460842343  0.030892413926
  0.227001953125 -1.099981971493 -1.099981971711  0.030939215169
  0.227441406250 -1.099499452815 -1.099499453038  0.030985647181
  0.227880859375 -1.099013087607 -1.099013087835  0.031031710478
  0.228320312500 -1.098522670870 -1.098522671102  0.031077405573
  0.228759765625 -1.098027990951 -1.098027991188  0.031122732981
  0.229199218750 -1.097528829396 -1.097528829638  0.031167693217
  0.229638671875 -1.097024960795 -1.097024961043  0.031212286796
  0.230078125000 -1.096516152629 -1.096516152882  0.031256514232
  0.230517578125 -1.096002165099 -1.096002165358  0.031300376039
  0.230957031250 -1.095482750963 -1.095482751228  0.031343872733
  0.231396484375 -1.094957655359 -1.094957655630  0.031387004827
  0.231835937500 -1.094426615624 -1.094426615901  0.031429772838
  0.232275390625 -1.093889361113 -1.093889361396  0.031472177280
  0.232714843750 -1.093345613001 -1.093345613292  0.031514218667
  0.233154296875 -1.092795084093 -1.092795084391  0.031555897515
  0.233593750000 -1.092237478615 -1.092237478920  0.031597214337
  0.234033203125 -1.091672492008 -1.091672492320  0.031638169650
