radius      S_expected         S_actual            Error 
  0.200000000000  0.081448953431  0.000000000000  0.081647363152
  0.203076923077  0.081983965737  0.081980324207  0.005718878326
  0.206153846154  0.082409750827  0.082406109303  0.005741572650
  0.209230769231  0.082727411629  0.082723770112  0.005756749367
  0.212307692308  0.082938013305  0.082934371795  0.005764497864
  0.215384615385  0.083042555522  0.083038914019  0.005764907482
  0.218461538462  0.083041945829  0.083038304335  0.005758067512
  0.221538461538  0.082936973923  0.082933332438  0.005744067195
  0.224615384615  0.082728286572  0.082724645096  0.005722995715
  0.227692307692  0.082416363020  0.082412721554  0.005694942206
  0.230769230769  0.082001490745  0.081997849289  0.005659995745
  0.233846153846  0.081483741531  0.081480100087  0.005618245351
  0.236923076923  0.080862947911  0.080859306480  0.005569779988
  0.240000000000  0.080138680185  0.080135038767  0.005514688559
  0.243076923077  0.079310224395  0.079306582991  0.005453059909
  0.246153846154  0.078376561851  0.078372920462  0.005384982823
  0.249230769231  0.077336351058  0.077332709685  0.005310546024
  0.252307692308  0.076187913238  0.076184271883  0.005229838175
  0.255384615385  0.074929222970  0.074925581634  0.005142947874
  0.258461538462  0.073557905920  0.073554264603  0.005049963656
  0.261538461538  0.072071246074  0.072067604779  0.004950973993
  0.264615384615  0.070466205366  0.070462564094  0.004846067291
  0.267692307692  0.068739459027  0.068735817780  0.004735331889
  0.270769230769  0.066887450364  0.066883809142  0.004618856063
  0.273846153846  0.064906468854  0.064902827661  0.004496728016
  0.276923076923  0.062792755385  0.062789114221  0.004369035888
  0.280000000000  0.060542637948  0.060538996816  0.004235867746
  0.283076923077  0.058152700055  0.058149058959  0.004097311590
  0.286153846154  0.055619982358  0.055616341298  0.003953455346
  0.289230769231  0.052942215329  0.052938574309  0.003804386872
  0.292307692308  0.050118077399  0.050114436421  0.003650193952
  0.295384615385  0.047147468641  0.047143827708  0.003490964297
  0.298461538462  0.044031785354  0.044028144470  0.003326785545
  0.301538461538  0.040774176156  0.040770535324  0.003157745258
  0.304615384615  0.037379756215  0.037376115439  0.002983930925
  0.307692307692  0.033855754036  0.033852113319  0.002805429957
  0.310769230769  0.030211565638  0.030207924985  0.002622329692
  0.313846153846  0.026458694876  0.026455054291  0.002434717388
  0.316923076923  0.022610566359  0.022606925847  0.002242680228
  0.320000000000  0.018682208575  0.018678568142  0.002046305319
  0.323076923077  0.014689818256  0.014686177907  0.001845679692
  0.326153846154  0.010650230800  0.010646590540  0.001640890309
  0.329230769231  0.006580333493  0.006576693329  0.001432024063
  0.332307692308  0.002496466051  0.002492825990  0.001219167800
  0.335384615385 -0.001586144862 -0.001589784813  0.001002408353
  0.338461538462 -0.005653874467 -0.005657514299  0.000781832640
  0.341538461538 -0.009695078788 -0.009698718493  0.000557528031
  0.344615384615 -0.013700343436 -0.013703983007  0.000329584215
  0.347692307692 -0.017662596457 -0.017666235883  0.000098121930
  0.350769230769 -0.021577092811 -0.021580732081  0.000136975071
  0.353846153846 -0.025441288720 -0.025444927824  0.000375310749
  0.356923076923 -0.029254630877 -0.029258269803  0.000616969414
  0.360000000000 -0.033018288263 -0.033021926999  0.000861845145
  0.363076923077 -0.036734853621 -0.036738492152  0.001109849521
  0.366153846154 -0.040408038258 -0.040411676571  0.001360896027
  0.369230769231 -0.044042379044 -0.044046017123  0.001614898675
  0.372307692308 -0.047642971066 -0.047646608894  0.001871771719
  0.375384615385 -0.051215234266 -0.051218871826  0.002131429569
  0.378461538462 -0.054764717945 -0.054768355218  0.002393786761
  0.381538461538 -0.058296943548 -0.058300580513  0.002658757942
  0.384615384615 -0.061817283666 -0.061820920302  0.002926257865
  0.387692307692 -0.065330873618 -0.065334509902  0.003196201385
  0.390769230769 -0.068842551178 -0.068846187084  0.003468503459
  0.393846153846 -0.072356819741 -0.072360455243  0.003743079146
  0.396923076923 -0.075877830399 -0.075881465468  0.004019843607
  0.400000000000 -0.079409378762 -0.079413013368  0.004298712103
  0.403076923077 -0.082954912916 -0.082958547026  0.004579599998
  0.406153846154 -0.086517549458 -0.086521183036  0.004862422759
  0.409230769231 -0.090100095132 -0.090103728141  0.005147095957
  0.412307692308 -0.093705072094 -0.093708704494  0.005433535265
  0.415384615385 -0.097334745301 -0.097338377048  0.005721656462
  0.418461538462 -0.100991150906 -0.100994781955  0.006011375432
  0.421538461538 -0.104676124861 -0.104679755162  0.006302608164
  0.424615384615 -0.108391331191 -0.108394960691  0.006595270754
  0.427692307692 -0.112138289607 -0.112141918250  0.006889279403
  0.430769230769 -0.115918402285 -0.115922030009  0.007184550420
  0.433846153846 -0.119732979744 -0.119736606485  0.007481000220
  0.436923076923 -0.123583265866 -0.123586891554  0.007778545324
  0.440000000000 -0.127470462126 -0.127474086687  0.008077102359
  0.443076923077 -0.131395751163 -0.131399374517  0.008376588056
  0.446153846154 -0.135360319832 -0.135363941893  0.008676919244
  0.449230769231 -0.139365381860 -0.139369002537  0.008978012853
  0.452307692308 -0.143412200238 -0.143415819433  0.009279785901
  0.455384615385 -0.147502109427 -0.147505727036  0.009582155488
  0.458461538462 -0.151636537410 -0.151640153320  0.009885038781
  0.461538461538 -0.155817027544 -0.155820641634  0.010188352997
  0.464615384615 -0.160045260080 -0.160048872222  0.010492015368
  0.467692307692 -0.164323073085 -0.164326683141  0.010795943105
  0.470769230769 -0.168652482331 -0.168656090154  0.011100053334
  0.473846153846 -0.173035699553 -0.173039304984  0.011404263008
  0.476923076923 -0.177475148194 -0.177478751065  0.011708488784
  0.480000000000 -0.181973475528 -0.181977075657  0.012012646841
  0.483076923077 -0.186533559677 -0.186537156870  0.012316652622
  0.486153846154 -0.191158509724 -0.191162103773  0.012620420463
  0.489230769231 -0.195851656716 -0.195855247399  0.012923863068
  0.492307692308 -0.200616532997 -0.200620120076  0.013226890756
  0.495384615385 -0.205456836987 -0.205460420207  0.013529410397
  0.498461538462 -0.210376380299 -0.210379959387  0.013831323898
  0.501538461538 -0.215379014097 -0.215382588760  0.014132526091
  0.504615384615 -0.220468531845 -0.220472101771  0.014432901769
  0.507692307692 -0.225648546337 -0.225652111190  0.014732321608
  0.510769230769 -0.230922340093 -0.230925899514  0.015030636634
  0.513846153846 -0.236292690136 -0.236296243741  0.015327670885
  0.516923076923 -0.241761670716 -0.241765218093  0.015623212053
  0.520000000000 -0.247330440793 -0.247333981503  0.015917000213
  0.523076923077 -0.252999026803 -0.253002560372  0.016208715616
  0.526153846154 -0.258766115001 -0.258769640926  0.016497968116
  0.529230769231 -0.264628871089 -0.264632388828  0.016784293550
  0.532307692308 -0.270582806948 -0.270586315923  0.017067166106
  0.535384615385 -0.276621714619 -0.276625214209  0.017346039209
  0.538461538462 -0.282737685269 -0.282741174811  0.017620426960
  0.541538461538 -0.288921225609 -0.288924704393  0.017890027607
  0.544615384615 -0.295161476083 -0.295164943347  0.018154865146
  0.547692307692 -0.301446524980 -0.301449979909  0.018415391775
  0.550769230769 -0.307763801789 -0.307767243511  0.018672479150
  0.553846153846 -0.314100523333 -0.314103950914  0.018927261880
  0.556923076923 -0.320444159276 -0.320447571718  0.019180877674
  0.560000000000 -0.326782880842 -0.326786277072  0.019434215035
  0.563076923077 -0.333105958553 -0.333109337426  0.019687770948
  0.566153846154 -0.339404081190 -0.339407441479  0.019941647705
  0.569230769231 -0.345669577689 -0.345672918079  0.020195646448
  0.572307692308 -0.351896534701 -0.351899853787  0.020449391593
  0.575384615385 -0.358080813199 -0.358084109475  0.020702438342
  0.578461538462 -0.364219976213 -0.364223248066  0.020954344690
  0.581538461538 -0.370313145775 -0.370316391480  0.021204709673
  0.584615384615 -0.376360809976 -0.376364027685  0.021453187606
  0.587692307692 -0.382364601089 -0.382367788824  0.021699488322
  0.590769230769 -0.388327063609 -0.388330219252  0.021943370753
  0.593846153846 -0.394251427593 -0.394254548878  0.022184634295
  0.596923076923 -0.400141398649 -0.400144483149  0.022423110280
  0.600000000000 -0.406000971942 -0.406004017059  0.022658654550
  0.603076923077 -0.411834274044 -0.411837276998  0.022891141412
  0.606153846154 -0.417645433653 -0.417648391468  0.023120458906
  0.609230769231 -0.423438480113 -0.423441389601  0.023346505208
  0.612307692308 -0.429217267298 -0.429220125051  0.023569185934
  0.615384615385 -0.434985419697 -0.434988222064  0.023788412147
  0.618461538462 -0.440746297180 -0.440749040254  0.024004098894
  0.621538461538 -0.446502975008 -0.446505654606  0.024216164140
  0.624615384615 -0.452258235869 -0.452260847517  0.024424527991
  0.627692307692 -0.458014571098 -0.458017110006  0.024629112137
  0.630769230769 -0.463774188658 -0.463776649701  0.024829839440
  0.633846153846 -0.469539025881 -0.469541403572  0.025026633650
  0.636923076923 -0.475310765368 -0.475313053839  0.025219419184
  0.640000000000 -0.481090852813 -0.481093045781  0.025408120984
  0.643076923077 -0.486880515788 -0.486882606533  0.025592664402
  0.646153846154 -0.492680782833 -0.492682764164  0.025772975120
  0.649230769231 -0.498492502358 -0.498494366582  0.025948979099
  0.652307692308 -0.504316361050 -0.504318099935  0.026120602535
  0.655384615385 -0.510152901609 -0.510154506351  0.026287771829
  0.658461538462 -0.516002539724 -0.516004000904  0.026450413567
  0.661538461538 -0.521865580278 -0.521866887822  0.026608454506
  0.664615384615 -0.527742232817 -0.527743375950  0.026761821562
  0.667692307692 -0.533632626351 -0.533633593551  0.026910441801
  0.670769230769 -0.539536823580 -0.539537602524  0.027054242433
  0.673846153846 -0.545454834605 -0.545455412120  0.027193150813
  0.676923076923 -0.551386630232 -0.551386992230  0.027327094429
  0.680000000000 -0.557332154874 -0.557332286297  0.027456000909
  0.683076923077 -0.563291339095 -0.563291223849  0.027579798011
  0.686153846154 -0.569264111712 -0.569263732593  0.027698413627
  0.689230769231 -0.575250411337 -0.575249749962  0.027811775781
  0.692307692308 -0.581250197120 -0.581249233849  0.027919812625
  0.695384615385 -0.587263458334 -0.587262172185  0.028022452444
  0.698461538462 -0.593290222269 -0.593288590830  0.028119623648
  0.701538461538 -0.599330559719 -0.599328559056  0.028211254777
  0.704615384615 -0.605384587111 -0.605382191669  0.028297274500
  0.707692307692 -0.611452464046 -0.611449646545  0.028377611612
  0.710769230769 -0.617534384730 -0.617531116055  0.028452195033
  0.713846153846 -0.623630561447 -0.623626810534  0.028520953811
  0.716923076923 -0.629741197898 -0.629736931608  0.028583817120
  0.720000000000 -0.635866449947 -0.635861632940  0.028640714256
  0.723076923077 -0.642006371108 -0.642000965707  0.028691574643
  0.726153846154 -0.648160840046 -0.648154806096  0.028736327826
  0.729230769231 -0.654329467558 -0.654322762276  0.028774903476
  0.732307692308 -0.660511480997 -0.660504058820  0.028807231383
  0.735384615385 -0.666705585096 -0.666697397516  0.028833241463
  0.738461538462 -0.672909799610 -0.672900795009  0.028852863750
  0.741538461538 -0.679121276322 -0.679111399794  0.028866028402
  0.744615384615 -0.685336100587 -0.685325293764  0.028872665696
  0.747692307692 -0.691549085728 -0.691537286588  0.028872706028
  0.750769230769 -0.697753571804 -0.697740714486  0.028866079915
  0.753846153846 -0.703941243302 -0.703927257909  0.028852717990
  0.756923076923 -0.710101982334 -0.710086794739  0.028832551005
  0.760000000000 -0.716223774531 -0.716207306175  0.028805509830
  0.763076923077 -0.722292683239 -0.722274850937  0.028771525451
  0.766153846154 -0.728292903585 -0.728273619325  0.028730528970
  0.769230769231 -0.734206901479 -0.734186072234  0.028682451604
  0.772307692308 -0.740015634286 -0.739993161825  0.028627224685
  0.775384615385 -0.745698840699 -0.745674621412  0.028564779659
  0.778461538462 -0.751235378869 -0.751209303606  0.028495048087
  0.781538461538 -0.756603585470 -0.756575539396  0.028417961641
  0.784615384615 -0.761781625428 -0.761751487900  0.028333452107
  0.787692307692 -0.766747803033 -0.766715447510  0.028241451381
  0.790769230769 -0.771480809996 -0.771446103979  0.028141891472
  0.793846153846 -0.775959893696 -0.775922698713  0.028034704500
  0.796923076923 -0.780164938091 -0.780125109735  0.027919822694
  0.800000000000 -0.784076458890 -0.784033846917  0.027797178394
  0.803076923077 -0.787675522366 -0.787629970863  0.027666704046
  0.806153846154 -0.790943602673 -0.790894950314  0.027528332209
  0.809230769231 -0.793862395464 -0.793810475863  0.027381995545
  0.812307692308 -0.796413606111 -0.796358248294  0.027227626827
  0.815384615385 -0.798578729440 -0.798519758439  0.027065158930
  0.818461538462 -0.800338835232 -0.800276072839  0.026894524838
  0.821538461538 -0.801674370556 -0.801607636248  0.026715657635
  0.824615384615 -0.802564986742 -0.802494098793  0.026528490509
  0.827692307692 -0.802989395892 -0.802914172716  0.026332956746
  0.830769230769 -0.802925259537 -0.802845521267  0.026128989733
  0.833846153846 -0.802349110314 -0.802264680664  0.025916522949
  0.836923076923 -0.801236306509 -0.801147014937  0.025695489965
  0.840000000000 -0.799561018728 -0.799466702934  0.025465824438
  0.843076923077 -0.797296247855 -0.797196756649  0.025227460109
  0.846153846154 -0.794413873609 -0.794309070180  0.024980330792
  0.849230769231 -0.790884733407 -0.790774499024  0.024724370369
  0.852307692308 -0.786678731681 -0.786562969858  0.024459512782
  0.855384615385 -0.781764980372 -0.781643621519  0.024185692019
  0.858461538462 -0.776111971798 -0.775984978394  0.023902842107
  0.861538461538 -0.769687785605 -0.769555157896  0.023610897093
  0.864615384615 -0.762460331907 -0.762322114157  0.023309791032
  0.867692307692 -0.754397633050 -0.754253920320  0.022999457969
  0.870769230769 -0.745468146644 -0.745319092116  0.022679831919
  0.873846153846 -0.735641132629 -0.735486955418  0.022350846849
  0.876923076923 -0.724887067088 -0.724728060508  0.022012436661
  0.880000000000 -0.713178105353 -0.713014645568  0.021664535167
  0.883076923077 -0.700488596601 -0.700321151544  0.021307076077
  0.886153846154 -0.686795651588 -0.686624790036  0.020939992984
  0.889230769231 -0.672079764448 -0.671906165071  0.020563219357
  0.892307692308 -0.656325488491 -0.656149948680  0.020176688544
  0.895384615385 -0.639522164729 -0.639345608949  0.019780333783
  0.898461538462 -0.621664700370 -0.621488187746  0.019374088233
  0.901538461538 -0.602754392747 -0.602579123543  0.018957885021
  0.904615384615 -0.582799792100 -0.582627112711  0.018531657315
  0.907692307692 -0.561817594303 -0.561649000330  0.018095338427
  0.910769230769 -0.539833552001 -0.539670688950  0.017648861940
  0.913846153846 -0.516883389815 -0.516728050926  0.017192161884
  0.916923076923 -0.493013706223 -0.492867826928  0.016725172931
  0.920000000000 -0.468282841602 -0.468148490104  0.016247830643
  0.923076923077 -0.442761688761 -0.442641052260  0.015760071739
  0.926153846154 -0.416534419260 -0.416429785394  0.015261834396
  0.929230769231 -0.389699096031 -0.389612829176  0.014753058561
  0.932307692308 -0.362368140466 -0.362302652659  0.014233686259
  0.935384615385 -0.334668620461 -0.334626336856  0.013703661892
  0.938461538462 -0.306742325051 -0.306725643988  0.013162932484
  0.941538461538 -0.278745591541 -0.278756839547  0.012611447880
  0.944615384615 -0.250848852619 -0.250890234890  0.012049160866
  0.947692307692 -0.223235874079 -0.223309421263  0.011476027226
  0.950769230769 -0.196102658636 -0.196210171042  0.010892005768
  0.953846153846 -0.169655998115 -0.169798988712  0.010297058404
  0.956923076923 -0.144111664979 -0.144291302849  0.009691150478
  0.960000000000 -0.119692244860 -0.119909300985  0.009074251655
  0.963076923077 -0.096624624242 -0.096879421649  0.008446337951
  0.966153846154 -0.075137161445 -0.075429531865  0.007807395865
  0.969230769231 -0.055456584126 -0.055785833274  0.007157430220
  0.972307692308 -0.037804671959 -0.038169555471  0.006496478441
  0.975384615385 -0.022394798139 -0.022793509945  0.005824635989
  0.978461538462 -0.009428416722 -0.009858591291  0.005142101707
  0.981538461538  0.000908406544  0.000449677099  0.004449261103
  0.984615384615  0.008448315650  0.007964449185  0.003746851134
  0.987692307692  0.013045732256  0.012540609110  0.003036332941
  0.990769230769  0.014579568762  0.014057470026  0.002320924038
  0.993846153846  0.012955495649  0.012421028683  0.001609378092
  0.996923076923  0.008107688401  0.007565701711  0.000936840087
  1.000000000000 -0.000000000000  0.000000000000  0.000000000000
