radius      S_expected         S_actual            Error 
  0.100000000000  0.000000000000  0.000000000000  0.010000000149
  0.104687500000  0.031191280428  0.031136778229  0.000054502199
  0.109375000000  0.062056763053  0.062002260855  0.000054502199
  0.114062500000  0.092596435028  0.092541932830  0.000054502199
  0.118750000000  0.122810283505  0.122755781307  0.000054502199
  0.123437500000  0.152698295636  0.152643793438  0.000054502199
  0.128125000000  0.182260458575  0.182205956376  0.000054502199
  0.132812500000  0.211496759473  0.211442257275  0.000054502199
  0.137500000000  0.240407185485  0.240352683286  0.000054502199
  0.142187500000  0.268991723763  0.268937221564  0.000054502199
  0.146875000000  0.297250361461  0.297195859262  0.000054502199
  0.151562500000  0.325183085732  0.325128583534  0.000054502199
  0.156250000000  0.352789883731  0.352735381533  0.000054502199
  0.160937500000  0.380070742612  0.380016240414  0.000054502199
  0.165625000000  0.407025649529  0.406971147331  0.000054502199
  0.170312500000  0.433654591638  0.433600089439  0.000054502199
  0.175000000000  0.459957556092  0.459903053893  0.000054502199
  0.179687500000  0.485934530047  0.485880027848  0.000054502199
  0.184375000000  0.511585500658  0.511530998460  0.000054502199
  0.189062500000  0.536910455082  0.536855952884  0.000054502199
  0.193750000000  0.561909380475  0.561854878276  0.000054502199
  0.198437500000  0.586582263992  0.586527761793  0.000054502199
  0.203125000000  0.610929092790  0.610874590591  0.000054502199
  0.207812500000  0.634949854026  0.634895351827  0.000054502199
  0.212500000000  0.658644534858  0.658590032659  0.000054502199
  0.217187500000  0.682013122442  0.681958620243  0.000054502199
  0.221875000000  0.705055603937  0.705001101738  0.000054502199
  0.226562500000  0.727771966501  0.727717464302  0.000054502199
  0.231250000000  0.750162197292  0.750107695093  0.000054502199
  0.235937500000  0.772226283469  0.772171781270  0.000054502199
  0.240625000000  0.793964212191  0.793909709993  0.000054502199
  0.245312500000  0.815375970618  0.815321468420  0.000054502199
  0.250000000000  0.836461545910  0.836407043711  0.000054502199
  0.254687500000  0.857220925226  0.857166423028  0.000054502199
  0.259375000000  0.877654095728  0.877599593529  0.000054502199
  0.264062500000  0.897761044576  0.897706542377  0.000054502199
  0.268750000000  0.917541758931  0.917487256732  0.000054502199
  0.273437500000  0.936996225956  0.936941723757  0.000054502199
  0.278125000000  0.956124432812  0.956069930613  0.000054502199
  0.282812500000  0.974926366662  0.974871864463  0.000054502199
  0.287500000000  0.993402014668  0.993347512470  0.000054502199
  0.292187500000  1.011551363995  1.011496861796  0.000054502199
  0.296875000000  1.029374401805  1.029319899607  0.000054502199
  0.301562500000  1.046871115264  1.046816613065  0.000054502199
  0.306250000000  1.064041491535  1.063986989336  0.000054502199
  0.310937500000  1.080885517783  1.080831015584  0.000054502199
  0.315625000000  1.097403181174  1.097348678976  0.000054502199
  0.320312500000  1.113594468874  1.113539966676  0.000054502199
  0.325000000000  1.129459368049  1.129404865851  0.000054502199
  0.329687500000  1.144997865867  1.144943363668  0.000054502199
  0.334375000000  1.160209949493  1.160155447294  0.000054502199
  0.339062500000  1.175095606096  1.175041103898  0.000054502199
  0.343750000000  1.189654822845  1.189600320646  0.000054502199
  0.348437500000  1.203887586907  1.203833084708  0.000054502199
  0.353125000000  1.217793885452  1.217739383254  0.000054502199
  0.357812500000  1.231373705650  1.231319203452  0.000054502199
  0.362500000000  1.244627034671  1.244572532472  0.000054502199
  0.367187500000  1.257553859686  1.257499357487  0.000054502199
  0.371875000000  1.270154167865  1.270099665666  0.000054502199
  0.376562500000  1.282427946381  1.282373444182  0.000054502199
  0.381250000000  1.294375182405  1.294320680207  0.000054502199
  0.385937500000  1.305995863111  1.305941360913  0.000054502199
  0.390625000000  1.317289975672  1.317235473474  0.000054502199
  0.395312500000  1.328257507262  1.328203005064  0.000054502199
  0.400000000000  1.338898445055  1.338843942857  0.000054502199
  0.404687500000  1.349212776226  1.349158274028  0.000054502199
  0.409375000000  1.359200487951  1.359145985753  0.000054502199
  0.414062500000  1.368861567406  1.368807065207  0.000054502199
  0.418750000000  1.378196001767  1.378141499569  0.000054502199
  0.423437500000  1.387203778212  1.387149276014  0.000054502199
  0.428125000000  1.395884883919  1.395830381721  0.000054502199
  0.432812500000  1.404239306066  1.404184803867  0.000054502199
  0.437500000000  1.412267031832  1.412212529634  0.000054502199
  0.442187500000  1.419968048397  1.419913546199  0.000054502199
  0.446875000000  1.427342342941  1.427287840743  0.000054502199
  0.451562500000  1.434389902646  1.434335400447  0.000054502199
  0.456250000000  1.441110714691  1.441056212493  0.000054502199
  0.460937500000  1.447504766261  1.447450264062  0.000054502199
  0.465625000000  1.453572044537  1.453517542338  0.000054502199
  0.470312500000  1.459312536703  1.459258034504  0.000054502199
  0.475000000000  1.464726229943  1.464671727745  0.000054502199
  0.479687500000  1.469813111442  1.469758609244  0.000054502199
  0.484375000000  1.474573168386  1.474518666187  0.000054502199
  0.489062500000  1.479006387960  1.478951885761  0.000054502199
  0.493750000000  1.483112757351  1.483058255152  0.000054502199
  0.498437500000  1.486892263746  1.486837761547  0.000054502199
  0.503125000000  1.490344894334  1.490290392136  0.000054502199
  0.507812500000  1.493470636304  1.493416134105  0.000054502199
  0.512500000000  1.496269476845  1.496214974646  0.000054502199
  0.517187500000  1.498741403147  1.498686900949  0.000054502199
  0.521875000000  1.500886402402  1.500831900203  0.000054502199
  0.526562500000  1.502704461800  1.502649959601  0.000054502199
  0.531250000000  1.504195568535  1.504141066336  0.000054502199
  0.535937500000  1.505359709799  1.505305207600  0.000054502199
  0.540625000000  1.506196872787  1.506142370588  0.000054502199
  0.545312500000  1.506707044692  1.506652542493  0.000054502199
  0.550000000000  1.506890212711  1.506835710512  0.000054502199
  0.554687500000  1.506746364039  1.506691861841  0.000054502199
  0.559375000000  1.506275485874  1.506220983675  0.000054502199
  0.564062500000  1.505477565412  1.505423063214  0.000054502199
  0.568750000000  1.504352589853  1.504298087654  0.000054502199
  0.573437500000  1.502900546395  1.502846044197  0.000054502199
  0.578125000000  1.501121422239  1.501066920041  0.000054502199
  0.582812500000  1.499015204586  1.498960702387  0.000054502199
  0.587500000000  1.496581880636  1.496527378437  0.000054502199
  0.592187500000  1.493821437592  1.493766935394  0.000054502199
  0.596875000000  1.490733862658  1.490679360460  0.000054502199
  0.601562500000  1.487319143038  1.487264640839  0.000054502199
  0.606250000000  1.483577265936  1.483522763737  0.000054502199
  0.610937500000  1.479508218558  1.479453716359  0.000054502199
  0.615625000000  1.475111988111  1.475057485912  0.000054502199
  0.620312500000  1.470388561801  1.470334059602  0.000054502199
  0.625000000000  1.465337926838  1.465283424639  0.000054502199
  0.629687500000  1.459960070429  1.459905568231  0.000054502199
  0.634375000000  1.454254979786  1.454200477588  0.000054502199
  0.639062500000  1.448222642119  1.448168139920  0.000054502199
  0.643750000000  1.441863044639  1.441808542441  0.000054502199
  0.648437500000  1.435176174560  1.435121672361  0.000054502199
  0.653125000000  1.428162019094  1.428107516895  0.000054502199
  0.657812500000  1.420820565455  1.420766063257  0.000054502199
  0.662500000000  1.413151800860  1.413097298661  0.000054502199
  0.667187500000  1.405155712524  1.405101210325  0.000054502199
  0.671875000000  1.396832287664  1.396777785465  0.000054502199
  0.676562500000  1.388181513498  1.388127011300  0.000054502199
  0.681250000000  1.379203377246  1.379148875047  0.000054502199
  0.685937500000  1.369897866126  1.369843363927  0.000054502199
  0.690625000000  1.360264967359  1.360210465161  0.000054502199
  0.695312500000  1.350304668168  1.350250165970  0.000054502199
  0.700000000000  1.340016955775  1.339962453576  0.000054502199
  0.704687500000  1.329401817403  1.329347315204  0.000054502199
  0.709375000000  1.318459240277  1.318404738079  0.000054502199
  0.714062500000  1.307189211623  1.307134709424  0.000054502199
  0.718750000000  1.295591718666  1.295537216468  0.000054502199
  0.723437500000  1.283666748635  1.283612246437  0.000054502199
  0.728125000000  1.271414288758  1.271359786560  0.000054502199
  0.732812500000  1.258834326265  1.258779824066  0.000054502199
  0.737500000000  1.245926848384  1.245872346186  0.000054502199
  0.742187500000  1.232691842349  1.232637340151  0.000054502199
  0.746875000000  1.219129295392  1.219074793193  0.000054502199
  0.751562500000  1.205239194746  1.205184692547  0.000054502199
  0.756250000000  1.191021527645  1.190967025446  0.000054502199
  0.760937500000  1.176476281325  1.176421779127  0.000054502199
  0.765625000000  1.161603443023  1.161548940825  0.000054502199
  0.770312500000  1.146402999976  1.146348497777  0.000054502199
  0.775000000000  1.130874939423  1.130820437224  0.000054502199
  0.779687500000  1.115019248603  1.114964746405  0.000054502199
  0.784375000000  1.098835914758  1.098781412559  0.000054502199
  0.789062500000  1.082324925128  1.082270422929  0.000054502199
  0.793750000000  1.065486266957  1.065431764759  0.000054502199
  0.798437500000  1.048319927489  1.048265425291  0.000054502199
  0.803125000000  1.030825893969  1.030771391771  0.000054502199
  0.807812500000  1.013004153643  1.012949651445  0.000054502199
  0.812500000000  0.994854693758  0.994800191560  0.000054502199
  0.817187500000  0.976377501563  0.976322999365  0.000054502199
  0.821875000000  0.957572564307  0.957518062108  0.000054502199
  0.826562500000  0.938439869240  0.938385367041  0.000054502199
  0.831250000000  0.918979403614  0.918924901415  0.000054502199
  0.835937500000  0.899191154682  0.899136652483  0.000054502199
  0.840625000000  0.879075109698  0.879020607499  0.000054502199
  0.845312500000  0.858631255917  0.858576753718  0.000054502199
  0.850000000000  0.837859580594  0.837805078396  0.000054502199
  0.854687500000  0.816760070989  0.816705568790  0.000054502199
  0.859375000000  0.795332714358  0.795278212159  0.000054502199
  0.864062500000  0.773577497962  0.773522995763  0.000054502199
  0.868750000000  0.751494409061  0.751439906862  0.000054502199
  0.873437500000  0.729083434918  0.729028932719  0.000054502199
  0.878125000000  0.706344562795  0.706290060596  0.000054502199
  0.882812500000  0.683277779958  0.683223277759  0.000054502199
  0.887500000000  0.659883073671  0.659828571472  0.000054502199
  0.892187500000  0.636160431201  0.636105929002  0.000054502199
  0.896875000000  0.612109839817  0.612055337618  0.000054502199
  0.901562500000  0.587731286787  0.587676784588  0.000054502199
  0.906250000000  0.563024759382  0.562970257184  0.000054502199
  0.910937500000  0.537990244874  0.537935742675  0.000054502199
  0.915625000000  0.512627730535  0.512573228337  0.000054502199
  0.920312500000  0.486937203640  0.486882701441  0.000054502199
  0.925000000000  0.460918651464  0.460864149265  0.000054502199
  0.929687500000  0.434572061283  0.434517559084  0.000054502199
  0.934375000000  0.407897420375  0.407842918177  0.000054502199
  0.939062500000  0.380894716020  0.380840213822  0.000054502199
  0.943750000000  0.353563935498  0.353509433300  0.000054502199
  0.948437500000  0.325905066090  0.325850563892  0.000054502199
  0.953125000000  0.297918095080  0.297863592881  0.000054502199
  0.957812500000  0.269603009751  0.269548507552  0.000054502199
  0.962500000000  0.240959797389  0.240905295190  0.000054502199
  0.967187500000  0.211988445281  0.211933943083  0.000054502199
  0.971875000000  0.182688940715  0.182634438517  0.000054502199
  0.976562500000  0.153061270981  0.153006768782  0.000054502199
  0.981250000000  0.123105423368  0.123050921169  0.000054502199
  0.985937500000  0.092821385170  0.092766882971  0.000054502199
  0.990625000000  0.062209143679  0.062154641480  0.000054502199
  0.995312500000  0.031268686190  0.031214183992  0.000054502199
  1.000000000000 -0.000000000000  0.000000000000  0.100000001490
