radius      S_expected         S_actual            Error 
  0.100000000000  0.207031273120  0.207031273050  0.444057464524
  0.101757812500  0.208359089214  0.208359089232  0.456114678783
  0.103515625000  0.209532544471  0.209532544459  0.468065921324
  0.105273437500  0.210559859744  0.210559859733  0.479911779289
  0.107031250000  0.211448716471  0.211448716460  0.491652844326
  0.108789062500  0.212206300281  0.212206300269  0.503289711878
  0.110546875000  0.212839340448  0.212839340436  0.514822980455
  0.112304687500  0.213354145636  0.213354145625  0.526253250896
  0.114062500000  0.213756636343  0.213756636332  0.537581125628
  0.115820312500  0.214052374382  0.214052374371  0.548807207925
  0.117578125000  0.214246589723  0.214246589712  0.559932101167
  0.119335937500  0.214344204965  0.214344204954  0.570956408113
  0.121093750000  0.214349857665  0.214349857655  0.581880730185
  0.122851562500  0.214267920765  0.214267920754  0.592705666773
  0.124609375000  0.214102521275  0.214102521264  0.603431814555
  0.126367187500  0.213857557406  0.213857557395  0.614059766851
  0.128125000000  0.213536714289  0.213536714279  0.624590113001
  0.129882812500  0.213143478418  0.213143478408  0.635023437776
  0.131640625000  0.212681150931  0.212681150921  0.645360320825
  0.133398437500  0.212152859850  0.212152859840  0.655601336155
  0.135156250000  0.211561571354  0.211561571344  0.665747051656
  0.136914062500  0.210910100192  0.210910100182  0.675798028664
  0.138671875000  0.210201119298  0.210201119289  0.685754821562
  0.140429687500  0.209437168691  0.209437168682  0.695617977428
  0.142187500000  0.208620663703  0.208620663693  0.705388035726
  0.143945312500  0.207753902611  0.207753902602  0.715065528036
  0.145703125000  0.206839073720  0.206839073711  0.724650977830
  0.147460937500  0.205878261926  0.205878261917  0.734144900286
  0.149218750000  0.204873454830  0.204873454822  0.743547802149
  0.150976562500  0.203826548412  0.203826548404  0.752860181627
  0.152734375000  0.202739352320  0.202739352312  0.762082528325
  0.154492187500  0.201613594793  0.201613594785  0.771215323221
  0.156250000000  0.200450927257  0.200450927249  0.780259038667
  0.158007812500  0.199252928605  0.199252928597  0.789214138438
  0.159765625000  0.198021109204  0.198021109196  0.798081077796
  0.161523437500  0.196756914632  0.196756914625  0.806860303592
  0.163281250000  0.195461729178  0.195461729171  0.815552254396
  0.165039062500  0.194136879114  0.194136879107  0.824157360642
  0.166796875000  0.192783635763  0.192783635756  0.832676044807
  0.168554687500  0.191403218373  0.191403218366  0.841108721596
  0.170312500000  0.189996796811  0.189996796804  0.849455798162
  0.172070312500  0.188565494096  0.188565494090  0.857717674320
  0.173828125000  0.187110388774  0.187110388768  0.865894742796
  0.175585937500  0.185632517149  0.185632517143  0.873987389467
  0.177343750000  0.184132875384  0.184132875379  0.881995993626
  0.179101562500  0.182612421479  0.182612421474  0.889920928244
  0.180859375000  0.181072077127  0.181072077121  0.897762560244
  0.182617187500  0.179512729466  0.179512729461  0.905521250773
  0.184375000000  0.177935232734  0.177935232729  0.913197355477
  0.186132812500  0.176340409822  0.176340409818  0.920791224783
  0.187890625000  0.174729053749  0.174729053744  0.928303204172
  0.189648437500  0.173101929042  0.173101929038  0.935733634454
  0.191406250000  0.171459773053  0.171459773049  0.943082852042
  0.193164062500  0.169803297193  0.169803297189  0.950351189215
  0.194921875000  0.168133188106  0.168133188103  0.957538974385
  0.196679687500  0.166450108775  0.166450108771  0.964646532349
  0.198437500000  0.164754699570  0.164754699566  0.971674184544
  0.200195312500  0.163047579243  0.163047579240  0.978622249287
  0.201953125000  0.161329345867  0.161329345864  0.985491042012
  0.203710937500  0.159600577729  0.159600577726  0.992280875498
  0.205468750000  0.157861834172  0.157861834169  0.998992060089
  0.207226562500  0.156113656401  0.156113656398  1.005624903902
  0.208984375000  0.154356568241  0.154356568239  1.012179713032
  0.210742187500  0.152591076861  0.152591076859  1.018656791748
  0.212500000000  0.150817673461  0.150817673460  1.025056442672
  0.214257812500  0.149036833923  0.149036833922  1.031378966959
  0.216015625000  0.147249019430  0.147249019429  1.037624664461
  0.217773437500  0.145454677058  0.145454677057  1.043793833891
  0.219531250000  0.143654240336  0.143654240335  1.049886772963
  0.221289062500  0.141848129779  0.141848129778  1.055903778542
  0.223046875000  0.140036753397  0.140036753397  1.061845146772
  0.224804687500  0.138220507181  0.138220507181  1.067711173203
  0.226562500000  0.136399775559  0.136399775559  1.073502152904
  0.228320312500  0.134574931841  0.134574931841  1.079218380578
  0.230078125000  0.132746338637  0.132746338637  1.084860150657
  0.231835937500  0.130914348253  0.130914348254  1.090427757400
  0.233593750000  0.129079303078  0.129079303079  1.095921494982
  0.235351562500  0.127241535945  0.127241535946  1.101341657572
  0.237109375000  0.125401370478  0.125401370479  1.106688539407
  0.238867187500  0.123559121425  0.123559121426  1.111962434866
  0.240625000000  0.121715094977  0.121715094978  1.117163638527
  0.242382812500  0.119869589067  0.119869589069  1.122292445226
  0.244140625000  0.118022893664  0.118022893666  1.127349150112
  0.245898437500  0.116175291046  0.116175291048  1.132334048690
  0.247656250000  0.114327056070  0.114327056073  1.137247436867
  0.249414062500  0.112478456421  0.112478456423  1.142089610989
  0.251171875000  0.110629752856  0.110629752859  1.146860867874
  0.252929687500  0.108781199439  0.108781199442  1.151561504843
  0.254687500000  0.106933043760  0.106933043763  1.156191819748
  0.256445312500  0.105085527151  0.105085527154  1.160752110993
  0.258203125000  0.103238884889  0.103238884892  1.165242677555
  0.259960937500  0.101393346391  0.101393346395  1.169663818998
  0.261718750000  0.099549135405  0.099549135409  1.174015835493
  0.263476562500  0.097706470186  0.097706470190  1.178299027826
  0.265234375000  0.095865563673  0.095865563677  1.182513697404
  0.266992187500  0.094026623651  0.094026623655  1.186660146267
  0.268750000000  0.092189852912  0.092189852917  1.190738677094
  0.270507812500  0.090355449410  0.090355449415  1.194749593197
  0.272265625000  0.088523606404  0.088523606409  1.198693198534
  0.274023437500  0.086694512600  0.086694512605  1.202569797698
  0.275781250000  0.084868352289  0.084868352294  1.206379695924
  0.277539062500  0.083045305474  0.083045305479  1.210123199079
  0.279296875000  0.081225547998  0.081225548003  1.213800613662
  0.281054687500  0.079409251662  0.079409251668  1.217412246797
  0.282812500000  0.077596584345  0.077596584351  1.220958406226
  0.284570312500  0.075787710110  0.075787710116  1.224439400302
  0.286328125000  0.073982789315  0.073982789321  1.227855537982
  0.288085937500  0.072181978717  0.072181978723  1.231207128817
  0.289843750000  0.070385431568  0.070385431574  1.234494482943
  0.291601562500  0.068593297714  0.068593297721  1.237717911069
  0.293359375000  0.066805723688  0.066805723695  1.240877724472
  0.295117187500  0.065022852797  0.065022852803  1.243974234978
  0.296875000000  0.063244825207  0.063244825213  1.247007754960
  0.298632812500  0.061471778030  0.061471778036  1.249978597317
  0.300390625000  0.059703845400  0.059703845407  1.252887075470
  0.302148437500  0.057941158553  0.057941158560  1.255733503346
  0.303906250000  0.056183845901  0.056183845908  1.258518195366
  0.305664062500  0.054432033101  0.054432033108  1.261241466434
  0.307421875000  0.052685843128  0.052685843135  1.263903631924
  0.309179687500  0.050945396342  0.050945396349  1.266505007668
  0.310937500000  0.049210810551  0.049210810558  1.269045909943
  0.312695312500  0.047482201074  0.047482201081  1.271526655459
  0.314453125000  0.045759680805  0.045759680812  1.273947561347
  0.316210937500  0.044043360267  0.044043360274  1.276308945145
  0.317968750000  0.042333347672  0.042333347679  1.278611124789
  0.319726562500  0.040629748976  0.040629748983  1.280854418598
  0.321484375000  0.038932667929  0.038932667937  1.283039145263
  0.323242187500  0.037242206133  0.037242206140  1.285165623835
  0.325000000000  0.035558463085  0.035558463092  1.287234173714
  0.326757812500  0.033881536230  0.033881536237  1.289245114637
  0.328515625000  0.032211521008  0.032211521015  1.291198766666
  0.330273437500  0.030548510897  0.030548510904  1.293095450178
  0.332031250000  0.028892597459  0.028892597467  1.294935485853
  0.333789062500  0.027243870385  0.027243870393  1.296719194662
  0.335546875000  0.025602417533  0.025602417540  1.298446897861
  0.337304687500  0.023968324970  0.023968324977  1.300118916973
  0.339062500000  0.022341677012  0.022341677019  1.301735573787
  0.340820312500  0.020722556264  0.020722556271  1.303297190337
  0.342578125000  0.019111043653  0.019111043661  1.304804088903
  0.344335937500  0.017507218470  0.017507218477  1.306256591994
  0.346093750000  0.015911158398  0.015911158405  1.307655022341
  0.347851562500  0.014322939555  0.014322939562  1.308999702888
  0.349609375000  0.012742636519  0.012742636526  1.310290956781
  0.351367187500  0.011170322369  0.011170322376  1.311529107362
  0.353125000000  0.009606068709  0.009606068716  1.312714478157
  0.354882812500  0.008049945705  0.008049945713  1.313847392871
  0.356640625000  0.006502022113  0.006502022120  1.314928175377
  0.358398437500  0.004962365307  0.004962365314  1.315957149709
  0.360156250000  0.003431041311  0.003431041318  1.316934640051
  0.361914062500  0.001908114825  0.001908114832  1.317860970736
  0.363671875000  0.000393649254  0.000393649261  1.318736466231
  0.365429687500 -0.001112293267 -0.001112293260  1.319561451135
  0.367187500000 -0.002609651845 -0.002609651838  1.320336250166
  0.368945312500 -0.004098366802 -0.004098366796  1.321061188160
  0.370703125000 -0.005578379655 -0.005578379648  1.321736590061
  0.372460937500 -0.007049633084 -0.007049633078  1.322362780913
  0.374218750000 -0.008512070915 -0.008512070908  1.322940085855
  0.375976562500 -0.009965638090 -0.009965638084  1.323468830115
  0.377734375000 -0.011410280649 -0.011410280643  1.323949339001
  0.379492187500 -0.012845945704 -0.012845945697  1.324381937899
  0.381250000000 -0.014272581417 -0.014272581411  1.324766952261
  0.383007812500 -0.015690136981 -0.015690136975  1.325104707604
  0.384765625000 -0.017098562595 -0.017098562589  1.325395529503
  0.386523437500 -0.018497809444 -0.018497809438  1.325639743582
  0.388281250000 -0.019887829679 -0.019887829673  1.325837675513
  0.390039062500 -0.021268576396 -0.021268576391  1.325989651008
  0.391796875000 -0.022640003617 -0.022640003612  1.326095995812
  0.393554687500 -0.024002066270 -0.024002066265  1.326157035703
  0.395312500000 -0.025354720167 -0.025354720162  1.326173096480
  0.397070312500 -0.026697921990 -0.026697921985  1.326144503963
  0.398828125000 -0.028031629269 -0.028031629264  1.326071583985
  0.400585937500 -0.029355800363 -0.029355800359  1.325954662390
  0.402343750000 -0.030670394446 -0.030670394441  1.325794065025
  0.404101562500 -0.031975371483 -0.031975371479  1.325590117736
  0.405859375000 -0.033270692220 -0.033270692216  1.325343146366
  0.407617187500 -0.034556318159 -0.034556318155  1.325053476747
  0.409375000000 -0.035832211548 -0.035832211544  1.324721434697
  0.411132812500 -0.037098335358 -0.037098335354  1.324347346015
  0.412890625000 -0.038354653271 -0.038354653267  1.323931536479
  0.414648437500 -0.039601129662 -0.039601129659  1.323474331838
  0.416406250000 -0.040837729584 -0.040837729581  1.322976057811
  0.418164062500 -0.042064418750 -0.042064418747  1.322437040081
  0.419921875000 -0.043281163520 -0.043281163517  1.321857604291
  0.421679687500 -0.044487930883 -0.044487930880  1.321238076041
  0.423437500000 -0.045684688445 -0.045684688443  1.320578780885
  0.425195312500 -0.046871404412 -0.046871404409  1.319880044325
  0.426953125000 -0.048048047573 -0.048048047571  1.319142191807
  0.428710937500 -0.049214587292 -0.049214587290  1.318365548719
  0.430468750000 -0.050370993487 -0.050370993485  1.317550440389
  0.432226562500 -0.051517236619 -0.051517236617  1.316697192076
  0.433984375000 -0.052653287678 -0.052653287677  1.315806128971
  0.435742187500 -0.053779118169 -0.053779118167  1.314877576194
  0.437500000000 -0.054894700096 -0.054894700094  1.313911858786
  0.439257812500 -0.056000005953 -0.056000005951  1.312909301711
  0.441015625000 -0.057095008707 -0.057095008706  1.311870229849
  0.442773437500 -0.058179681787 -0.058179681786  1.310794967996
  0.444531250000 -0.059253999070 -0.059253999070  1.309683840856
  0.446289062500 -0.060317934870 -0.060317934869  1.308537173045
  0.448046875000 -0.061371463921 -0.061371463921  1.307355289081
  0.449804687500 -0.062414561371 -0.062414561370  1.306138513384
  0.451562500000 -0.063447202764 -0.063447202763  1.304887170277
  0.453320312500 -0.064469364031 -0.064469364031  1.303601583976
  0.455078125000 -0.065481021478 -0.065481021478  1.302282078591
  0.456835937500 -0.066482151773 -0.066482151774  1.300928978124
  0.458593750000 -0.067472731937 -0.067472731937  1.299542606466
  0.460351562500 -0.068452739327 -0.068452739327  1.298123287392
  0.462109375000 -0.069422151631 -0.069422151631  1.296671344562
  0.463867187500 -0.070380946853 -0.070380946854  1.295187101517
  0.465625000000 -0.071329103306 -0.071329103307  1.293670881675
  0.467382812500 -0.072266599595 -0.072266599596  1.292123008331
  0.469140625000 -0.073193414612 -0.073193414613  1.290543804655
  0.470898437500 -0.074109527522 -0.074109527523  1.288933593689
  0.472656250000 -0.075014917756 -0.075014917758  1.287292698341
  0.474414062500 -0.075909564997 -0.075909564999  1.285621441392
  0.476171875000 -0.076793449175 -0.076793449177  1.283920145486
  0.477929687500 -0.077666550450 -0.077666550452  1.282189133129
  0.479687500000 -0.078528849210 -0.078528849212  1.280428726692
  0.481445312500 -0.079380326056 -0.079380326058  1.278639248404
  0.483203125000 -0.080220961796 -0.080220961798  1.276821020353
  0.484960937500 -0.081050737432 -0.081050737435  1.274974364485
  0.486718750000 -0.081869634158 -0.081869634160  1.273099602597
  0.488476562500 -0.082677633341 -0.082677633344  1.271197056343
  0.490234375000 -0.083474716522 -0.083474716525  1.269267047228
  0.491992187500 -0.084260865401 -0.084260865404  1.267309896606
  0.493750000000 -0.085036061833 -0.085036061836  1.265325925681
  0.495507812500 -0.085800287815 -0.085800287818  1.263315455506
  0.497265625000 -0.086553525483 -0.086553525486  1.261278806977
  0.499023437500 -0.087295757100 -0.087295757104  1.259216300838
  0.500781250000 -0.088026965052 -0.088026965056  1.257128257677
  0.502539062500 -0.088747131836 -0.088747131840  1.255014997922
  0.504296875000 -0.089456240058 -0.089456240062  1.252876841846
  0.506054687500 -0.090154272420 -0.090154272424  1.250714109561
  0.507812500000 -0.090841211718 -0.090841211722  1.248527121019
  0.509570312500 -0.091517040831 -0.091517040836  1.246316196011
  0.511328125000 -0.092181742718 -0.092181742722  1.244081654166
  0.513085937500 -0.092835300408 -0.092835300413  1.241823814950
  0.514843750000 -0.093477696997 -0.093477697002  1.239542997666
  0.516601562500 -0.094108915638 -0.094108915643  1.237239521452
  0.518359375000 -0.094728939539 -0.094728939543  1.234913705282
  0.520117187500 -0.095337751953 -0.095337751957  1.232565867962
  0.521875000000 -0.095935336175 -0.095935336180  1.230196328135
  0.523632812500 -0.096521675539 -0.096521675543  1.227805404275
  0.525390625000 -0.097096753404 -0.097096753409  1.225393414689
  0.527148437500 -0.097660553158 -0.097660553163  1.222960677516
  0.528906250000 -0.098213058209 -0.098213058214  1.220507510728
  0.530664062500 -0.098754251980 -0.098754251985  1.218034232126
  0.532421875000 -0.099284117903 -0.099284117908  1.215541159345
  0.534179687500 -0.099802639419 -0.099802639424  1.213028609846
  0.535937500000 -0.100309799970 -0.100309799975  1.210496900925
  0.537695312500 -0.100805582994 -0.100805583000  1.207946349704
  0.539453125000 -0.101289971926 -0.101289971931  1.205377273138
  0.541210937500 -0.101762950188 -0.101762950193  1.202789988007
  0.542968750000 -0.102224501190 -0.102224501195  1.200184810923
  0.544726562500 -0.102674608323 -0.102674608329  1.197562058326
  0.546484375000 -0.103113254961 -0.103113254966  1.194922046484
  0.548242187500 -0.103540424450 -0.103540424456  1.192265091494
  0.550000000000 -0.103956100114 -0.103956100119  1.189591509280
  0.551757812500 -0.104360265243 -0.104360265248  1.186901615594
  0.553515625000 -0.104752903099 -0.104752903104  1.184195726017
  0.555273437500 -0.105133996907 -0.105133996912  1.181474155955
  0.557031250000 -0.105503529856 -0.105503529861  1.178737220642
  0.558789062500 -0.105861485097 -0.105861485103  1.175985235141
  0.560546875000 -0.106207845740 -0.106207845745  1.173218514338
  0.562304687500 -0.106542594851 -0.106542594856  1.170437372948
  0.564062500000 -0.106865715454 -0.106865715459  1.167642125512
  0.565820312500 -0.107177190525 -0.107177190530  1.164833086396
  0.567578125000 -0.107477002995 -0.107477003001  1.162010569793
  0.569335937500 -0.107765135748 -0.107765135753  1.159174889721
  0.571093750000 -0.108041571615 -0.108041571620  1.156326360021
  0.572851562500 -0.108306293380 -0.108306293385  1.153465294363
  0.574609375000 -0.108559283778 -0.108559283783  1.150592006239
  0.576367187500 -0.108800525490 -0.108800525495  1.147706808965
  0.578125000000 -0.109030001147 -0.109030001152  1.144810015682
  0.579882812500 -0.109247693329 -0.109247693334  1.141901939353
  0.581640625000 -0.109453584565 -0.109453584570  1.138982892765
  0.583398437500 -0.109647657331 -0.109647657336  1.136053188528
  0.585156250000 -0.109829894054 -0.109829894059  1.133113139072
  0.586914062500 -0.110000277109 -0.110000277113  1.130163056651
  0.588671875000 -0.110158788821 -0.110158788825  1.127203253338
  0.590429687500 -0.110305411467 -0.110305411471  1.124234041028
  0.592187500000 -0.110440127274 -0.110440127278  1.121255731433
  0.593945312500 -0.110562918423 -0.110562918427  1.118268636087
  0.595703125000 -0.110673767048 -0.110673767052  1.115273066341
  0.597460937500 -0.110772655239 -0.110772655243  1.112269333364
  0.599218750000 -0.110859565041 -0.110859565044  1.109257748140
  0.600976562500 -0.110934478458 -0.110934478461  1.106238621471
  0.602734375000 -0.110997377453 -0.110997377456  1.103212263973
  0.604492187500 -0.111048243952 -0.111048243955  1.100178986077
  0.606250000000 -0.111087059842 -0.111087059846  1.097139098026
  0.608007812500 -0.111113806979 -0.111113806982  1.094092909876
  0.609765625000 -0.111128467183 -0.111128467186  1.091040731493
  0.611523437500 -0.111131022247 -0.111131022250  1.087982872553
  0.613281250000 -0.111121453934 -0.111121453937  1.084919642542
  0.615039062500 -0.111099743984 -0.111099743987  1.081851350752
  0.616796875000 -0.111065874114 -0.111065874117  1.078778306282
  0.618554687500 -0.111019826020 -0.111019826023  1.075700818035
  0.620312500000 -0.110961581383 -0.110961581386  1.072619194719
  0.622070312500 -0.110891121870 -0.110891121872  1.069533744843
  0.623828125000 -0.110808429136 -0.110808429137  1.066444776716
  0.625585937500 -0.110713484828 -0.110713484830  1.063352598447
  0.627343750000 -0.110606270592 -0.110606270594  1.060257517944
  0.629101562500 -0.110486768070 -0.110486768071  1.057159842906
  0.630859375000 -0.110354958906 -0.110354958907  1.054059880831
  0.632617187500 -0.110210824752 -0.110210824753  1.050957939008
  0.634375000000 -0.110054347268 -0.110054347269  1.047854324515
  0.636132812500 -0.109885508128 -0.109885508129  1.044749344219
