radius      S_expected         S_actual            Error 
  0.100000000000  0.000000000000  0.000000000000  0.781392286992
  0.100878906250  0.000128303726  0.000128304258  0.782125150147
  0.101757812500  0.000254099619  0.000254098921  0.782856884011
  0.102636718750  0.000375682168  0.000375681230  0.783585721988
  0.103515625000  0.000491474013  0.000491472950  0.784309899673
  0.104394531250  0.000600070878  0.000600069822  0.785027642480
  0.105273437500  0.000700277489  0.000700276576  0.785737155933
  0.106152343750  0.000791132996  0.000791132349  0.786436619452
  0.107031250000  0.000871925251  0.000871924973  0.787124184169
  0.107910156250  0.000942194073  0.000942194238  0.787797975003
  0.108789062500  0.001001724349  0.001001724998  0.788456096928
  0.109667968750  0.001050530359  0.001050531499  0.789096645086
  0.110546875000  0.001088833121  0.001088834726  0.789717718155
  0.111425781250  0.001117032715  0.001117034733  0.790317434252
  0.112304687500  0.001135677586  0.001135679948  0.790893948531
  0.113183593750  0.001145432676  0.001145435296  0.791445471618
  0.114062500000  0.001147047993  0.001147050782  0.791970288060
  0.114941406250  0.001141328937  0.001141331806  0.792466774013
  0.115820312500  0.001129109354  0.001129112219  0.792933413562
  0.116699218750  0.001111227950  0.001111230739  0.793368813125
  0.117578125000  0.001088508425  0.001088511074  0.793771713596
  0.118457031250  0.001061743398  0.001061745860  0.794140999970
  0.119335937500  0.001031682025  0.001031684262  0.794475708365
  0.120214843750  0.000999021027  0.000999023017  0.794775030417
  0.121093750000  0.000964398784  0.000964400514  0.795038315169
  0.121972656250  0.000928392066  0.000928393534  0.795265068605
  0.122851562500  0.000891514971  0.000891516183  0.795454951063
  0.123730468750  0.000854219643  0.000854220609  0.795607772769
  0.124609375000  0.000816898367  0.000816899105  0.795723487787
  0.125488281250  0.000779886690  0.000779887218  0.795802186650
  0.126367187500  0.000743467240  0.000743467580  0.795844087955
  0.127246093750  0.000707874002  0.000707874176  0.795849529192
  0.128125000000  0.000673296807  0.000673296836  0.795818957028
  0.129003906250  0.000639885887  0.000639885793  0.795752917292
  0.129882812500  0.000607756347  0.000607756150  0.795652044839
  0.130761718750  0.000576992462  0.000576992180  0.795517053461
  0.131640625000  0.000547651730  0.000547651380  0.795348725992
  0.132519531250  0.000519768641  0.000519768239  0.795147904717
  0.133398437500  0.000493358125  0.000493357683  0.794915482188
  0.134277343750  0.000468418678  0.000468418208  0.794652392500
  0.135156250000  0.000444935170  0.000444934682  0.794359603100
  0.136035156250  0.000422881336  0.000422880838  0.794038107145
  0.136914062500  0.000402221966  0.000402221466  0.793688916443
  0.137792968750  0.000382914827  0.000382914331  0.793313054982
  0.138671875000  0.000364912317  0.000364911830  0.792911553037
  0.139550781250  0.000348162897  0.000348162421  0.792485441860
  0.140429687500  0.000332612300  0.000332611839  0.792035748910
  0.141308593750  0.000318204564  0.000318204120  0.791563493635
  0.142187500000  0.000304882888  0.000304882463  0.791069683750
  0.143066406250  0.000292590347  0.000292589942  0.790555311993
  0.143945312500  0.000281270474  0.000281270089  0.790021353329
  0.144824218750  0.000270867734  0.000270867370  0.789468762576
  0.145703125000  0.000261327897  0.000261327553  0.788898472398
  0.146582031250  0.000252598333  0.000252598009  0.788311391665
  0.147460937500  0.000244628231  0.000244627928  0.787708404127
  0.148339843750  0.000237368764  0.000237368479  0.787090367369
  0.149218750000  0.000230773195  0.000230772930  0.786458112043
  0.150097656250  0.000224796953  0.000224796706  0.785812441319
  0.150976562500  0.000219397661  0.000219397431  0.785154130555
  0.151855468750  0.000214535145  0.000214534930  0.784483927140
  0.152734375000  0.000210171412  0.000210171213  0.783802550511
  0.153613281250  0.000206270620  0.000206270435  0.783110692298
  0.154492187500  0.000202799020  0.000202798849  0.782409016599
  0.155371093750  0.000199724900  0.000199724742  0.781698160361
  0.156250000000  0.000197018506  0.000197018360  0.780978733840
  0.157128906250  0.000194651972  0.000194651836  0.780251321148
  0.158007812500  0.000192599232  0.000192599108  0.779516480853
  0.158886718750  0.000190835943  0.000190835828  0.778774746632
  0.159765625000  0.000189339393  0.000189339287  0.778026627962
  0.160644531250  0.000188088418  0.000188088320  0.777272610850
  0.161523437500  0.000187063319  0.000187063229  0.776513158569
  0.162402343750  0.000186245779  0.000186245696  0.775748712427
  0.163281250000  0.000185618777  0.000185618701  0.774979692535
  0.164160156250  0.000185166516  0.000185166446  0.774206498581
  0.165039062500  0.000184874343  0.000184874279  0.773429510601
  0.165917968750  0.000184728679  0.000184728620  0.772649089750
  0.166796875000  0.000184716947  0.000184716893  0.771865579060
  0.167675781250  0.000184827507  0.000184827457  0.771079304186
  0.168554687500  0.000185049594  0.000185049549  0.770290574141
  0.169433593750  0.000185373258  0.000185373216  0.769499682013
  0.170312500000  0.000185789305  0.000185789267  0.768706905666
  0.171191406250  0.000186289249  0.000186289214  0.767912508417
  0.172070312500  0.000186865258  0.000186865226  0.767116739701
  0.172949218750  0.000187510107  0.000187510078  0.766319835705
  0.173828125000  0.000188217138  0.000188217111  0.765522019994
  0.174707031250  0.000188980215  0.000188980190  0.764723504099
  0.175585937500  0.000189793685  0.000189793663  0.763924488098
  0.176464843750  0.000190652347  0.000190652326  0.763125161165
  0.177343750000  0.000191551412  0.000191551393  0.762325702102
  0.178222656250  0.000192486477  0.000192486460  0.761526279849
  0.179101562500  0.000193453492  0.000193453476  0.760727053969
  0.179980468750  0.000194448736  0.000194448722  0.759928175117
  0.180859375000  0.000195468791  0.000195468778  0.759129785488
  0.181738281250  0.000196510516  0.000196510504  0.758332019237
  0.182617187500  0.000197571031  0.000197571020  0.757535002894
  0.183496093750  0.000198647690  0.000198647680  0.756738855744
  0.184375000000  0.000199738069  0.000199738060  0.755943690200
  0.185253906250  0.000200839944  0.000200839935  0.755149612155
  0.186132812500  0.000201951277  0.000201951270  0.754356721315
  0.187011718750  0.000203070204  0.000203070197  0.753565111516
  0.187890625000  0.000204195015  0.000204195009  0.752774871026
  0.188769531250  0.000205324149  0.000205324143  0.751986082831
  0.189648437500  0.000206456175  0.000206456169  0.751198824909
  0.190527343750  0.000207589787  0.000207589782  0.750413170480
  0.191406250000  0.000208723794  0.000208723790  0.749629188258
  0.192285156250  0.000209857108  0.000209857104  0.748846942675
  0.193164062500  0.000210988735  0.000210988732  0.748066494101
  0.194042968750  0.000212117774  0.000212117771  0.747287899048
  0.194921875000  0.000213243403  0.000213243399  0.746511210366
  0.195800781250  0.000214364874  0.000214364871  0.745736477424
  0.196679687500  0.000215481511  0.000215481508  0.744963746285
  0.197558593750  0.000216592702  0.000216592699  0.744193059864
  0.198437500000  0.000217697892  0.000217697890  0.743424458083
  0.199316406250  0.000218796584  0.000218796582  0.742657978015
  0.200195312500  0.000219888329  0.000219888327  0.741893654014
  0.201074218750  0.000220972727  0.000220972725  0.741131517845
  0.201953125000  0.000222049421  0.000222049420  0.740371598800
  0.202832031250  0.000223118097  0.000223118096  0.739613923804
  0.203710937500  0.000224178477  0.000224178476  0.738858517523
  0.204589843750  0.000225230321  0.000225230320  0.738105402453
  0.205468750000  0.000226273422  0.000226273421  0.737354599009
  0.206347656250  0.000227307607  0.000227307606  0.736606125609
  0.207226562500  0.000228332732  0.000228332731  0.735859998744
  0.208105468750  0.000229348684  0.000229348683  0.735116233048
  0.208984375000  0.000230355379  0.000230355378  0.734374841359
  0.209863281250  0.000231352761  0.000231352760  0.733635834776
  0.210742187500  0.000232340800  0.000232340799  0.732899222708
  0.211621093750  0.000233319496  0.000233319495  0.732165012918
  0.212500000000  0.000234288875  0.000234288874  0.731433211566
  0.213378906250  0.000235248990  0.000235248989  0.730703823236
  0.214257812500  0.000236199923  0.000236199922  0.729976850971
  0.215136718750  0.000237141784  0.000237141783  0.729252296291
  0.216015625000  0.000238074713  0.000238074712  0.728530159217
  0.216894531250  0.000238998882  0.000238998881  0.727810438278
  0.217773437500  0.000239914494  0.000239914493  0.727093130521
  0.218652343750  0.000240821787  0.000240821786  0.726378231519
  0.219531250000  0.000241721037  0.000241721036  0.725665735360
  0.220410156250  0.000242612557  0.000242612556  0.724955634649
  0.221289062500  0.000243496703  0.000243496702  0.724247920490
  0.222167968750  0.000244373878  0.000244373876  0.723542582472
  0.223046875000  0.000245244530  0.000245244529  0.722839608647
  0.223925781250  0.000246109166  0.000246109164  0.722138985501
  0.224804687500  0.000246968345  0.000246968343  0.721440697921
  0.225683593750  0.000247822694  0.000247822692  0.720744729160
  0.226562500000  0.000248672908  0.000248672905  0.720051060791
  0.227441406250  0.000249519756  0.000249519753  0.719359672660
  0.228320312500  0.000250364092  0.000250364089  0.718670542827
  0.229199218750  0.000251206862  0.000251206858  0.717983647511
  0.230078125000  0.000252049109  0.000252049105  0.717298961015
  0.230957031250  0.000252891989  0.000252891985  0.716616455663
  0.231835937500  0.000253736779  0.000253736775  0.715936101708
  0.232714843750  0.000254584888  0.000254584883  0.715257867254
  0.233593750000  0.000255437872  0.000255437866  0.714581718159
  0.234472656250  0.000256297449  0.000256297443  0.713907617931
  0.235351562500  0.000257165516  0.000257165509  0.713235527623
  0.236230468750  0.000258044165  0.000258044158  0.712565405711
  0.237109375000  0.000258935706  0.000258935698  0.711897207972
  0.237988281250  0.000259842686  0.000259842677  0.711230887348
  0.238867187500  0.000260767915  0.000260767905  0.710566393801
  0.239746093750  0.000261714492  0.000261714481  0.709903674162
  0.240625000000  0.000262685839  0.000262685827  0.709242671964
  0.241503906250  0.000263685727  0.000263685713  0.708583327274
  0.242382812500  0.000264718315  0.000264718300  0.707925576500
  0.243261718750  0.000265788193  0.000265788177  0.707269352203
  0.244140625000  0.000266900421  0.000266900403  0.706614582883
  0.245019531250  0.000268060580  0.000268060560  0.705961192758
  0.245898437500  0.000269274826  0.000269274804  0.705309101534
  0.246777343750  0.000270549944  0.000270549920  0.704658224153
  0.247656250000  0.000271893421  0.000271893394  0.704008470534
  0.248535156250  0.000273313510  0.000273313480  0.703359745292
  0.249414062500  0.000274819310  0.000274819277  0.702711947450
  0.250292968750  0.000276420855  0.000276420819  0.702064970125
  0.251171875000  0.000278129209  0.000278129170  0.701418700207
  0.252050781250  0.000279956568  0.000279956524  0.700773018011
  0.252929687500  0.000281916377  0.000281916329  0.700127796916
  0.253808593750  0.000284023457  0.000284023404  0.699482902987
  0.254687500000  0.000286294145  0.000286294086  0.698838194570
  0.255566406250  0.000288746447  0.000288746382  0.698193521874
  0.256445312500  0.000291400208  0.000291400136  0.697548726528
  0.257324218750  0.000294277296  0.000294277217  0.696903641114
  0.258203125000  0.000297401806  0.000297401719  0.696258088687
  0.259082031250  0.000300800287  0.000300800191  0.695611882259
  0.259960937500  0.000304501987  0.000304501881  0.694964824271
  0.260839843750  0.000308539120  0.000308539004  0.694316706035
  0.261718750000  0.000312947168  0.000312947040  0.693667307153
  0.262597656250  0.000317765202  0.000317765061  0.693016394912
  0.263476562500  0.000323036241  0.000323036086  0.692363723650
  0.264355468750  0.000328807643  0.000328807472  0.691709034108
  0.265234375000  0.000335131528  0.000335131340  0.691052052743
  0.266113281250  0.000342065253  0.000342065046  0.690392491027
  0.266992187500  0.000349671917  0.000349671690  0.689730044718
  0.267871093750  0.000358020924  0.000358020675  0.689064393105
  0.268750000000  0.000367188588  0.000367188316  0.688395198237
  0.269628906250  0.000377258802  0.000377258503  0.687722104124
  0.270507812500  0.000388323755  0.000388323428  0.687044735922
  0.271386718750  0.000400484722  0.000400484364  0.686362699098
  0.272265625000  0.000413852914  0.000413852522  0.685675578583
  0.273144531250  0.000428550400  0.000428549972  0.684982937907
  0.274023437500  0.000444711109  0.000444710642  0.684284318326
  0.274902343750  0.000462481905  0.000462481395  0.683579237950
  0.275781250000  0.000482023743  0.000482023189  0.682867190858
  0.276660156250  0.000503512916  0.000503512314  0.682147646223
  0.277539062500  0.000527142383  0.000527141729  0.681420047454
  0.278417968750  0.000553123183  0.000553122475  0.680683811338
  0.279296875000  0.000581685937  0.000581685172  0.679938327222
  0.280175781250  0.000613082437  0.000613081612  0.679182956220
  0.281054687500  0.000647587300  0.000647586414  0.678417030463
  0.281933593750  0.000685499706  0.000685498757  0.677639852406
  0.282812500000  0.000727145177  0.000727144164  0.676850694200
  0.283691406250  0.000772877406  0.000772876328  0.676048797142
  0.284570312500  0.000823080092  0.000823078953  0.675233371222
  0.285449218750  0.000878168768  0.000878167569  0.674403594782
  0.286328125000  0.000938592562  0.000938591308  0.673558614311
  0.287207031250  0.001004835861  0.001004834560  0.672697544383
  0.288085937500  0.001077419806  0.001077418469  0.671819467785
  0.288964843750  0.001156903541  0.001156902182  0.670923435834
  0.289843750000  0.001243885132  0.001243883770  0.670008468941
  0.290722656250  0.001339002030  0.001339000688  0.669073557427
  0.291601562500  0.001442930960  0.001442929668  0.668117662651
  0.292480468750  0.001556387078  0.001556385873  0.667139718469
  0.293359375000  0.001680122202  0.001680121130  0.666138633093
  0.294238281250  0.001814921924  0.001814921038  0.665113291375
  0.295117187500  0.001961601354  0.001961600719  0.664062557588
  0.295996093750  0.002120999236  0.002120998926  0.662985278764
  0.296875000000  0.002293970137  0.002293970237  0.661880288650
  0.297753906250  0.002481374396  0.002481375005  0.660746412360
  0.298632812500  0.002684065505  0.002684066732  0.659582471810
  0.299511718750  0.002902874563  0.002902876527  0.658387292018
  0.300390625000  0.003138591493  0.003138594324  0.657159708365
  0.301269531250  0.003391942702  0.003391946535  0.655898574919
  0.302148437500  0.003663564942  0.003663569914  0.654602773921
  0.303027343750  0.003953975201  0.003953981445  0.653271226535
  0.303906250000  0.004263536601  0.004263544240  0.651902904971
  0.304785156250  0.004592420436  0.004592429570  0.650496846045
  0.305664062500  0.004940564726  0.004940575424  0.649052166271
  0.306542968750  0.005307629948  0.005307642234  0.647568078508
  0.307421875000  0.005692952946  0.005692966782  0.646043910172
  0.308300781250  0.006095500417  0.006095515691  0.644479122962
  0.309179687500  0.006513823829  0.006513840337  0.642873333979
  0.310058593750  0.006946018040  0.006946035474  0.641226338027
  0.310937500000  0.007389686355  0.007389704295  0.639538130807
  0.311816406250  0.007841915135  0.007841933044  0.637808932569
  0.312695312500  0.008299261305  0.008299278534  0.636039211678
  0.313574218750  0.008757756224  0.008757772026  0.634229707431
  0.314453125000  0.009212929195  0.009212942753  0.632381451290
  0.315332031250  0.009659853458  0.009659863920  0.630495785647
  0.316210937500  0.010093216663  0.010093223195  0.628574379085
  0.317089843750  0.010507416703  0.010507418545  0.626619237095
  0.317968750000  0.010896682228  0.010896678760  0.624632707207
  0.318847656250  0.011255215430  0.011255206234  0.622617477562
  0.319726562500  0.011577352746  0.011577337665  0.620576568117
  0.320605468750  0.011857737247  0.011857716427  0.618513313890
  0.321484375000  0.012091494813  0.012091468719  0.616431339983
  0.322363281250  0.012274404975  0.012274374392  0.614334528453
  0.323242187500  0.012403056741  0.012403022737  0.612226977534
  0.324121093750  0.012474979911  0.012474943779  0.610112954105
  0.325000000000  0.012488743454  0.012488706628  0.607996840696
  0.325878906250  0.012444014353  0.012443978315  0.605883078657
  0.326757812500  0.012341572874  0.012341539047  0.603776109338
  0.327636718750  0.012183283099  0.012183252753  0.601680315270
  0.328515625000  0.011972020668  0.011971994844  0.599599963332
  0.329394531250  0.011711562523  0.011711541972  0.597539151757
  0.330273437500  0.011406445821  0.011406430975  0.595501762602
  0.331152343750  0.011061804874  0.011061795845  0.593491420969
  0.332031250000  0.010683195833  0.010683192436  0.591511461877
  0.332910156250  0.010276418814  0.010276420613  0.589564905281
  0.333789062500  0.009847346431  0.009847352794  0.587654439324
  0.334667968750  0.009401766309  0.009401776476  0.585782411534
  0.335546875000  0.008945243404  0.008945256544  0.583950827404
  0.336425781250  0.008483005975  0.008483021251  0.582161355514
  0.337304687500  0.008019857170  0.008019873781  0.580415338257
  0.338183593750  0.007560112370  0.007560129592  0.578713807096
  0.339062500000  0.007107561055  0.007107578261  0.577057501324
  0.339941406250  0.006665450797  0.006665467474  0.575446889308
  0.340820312500  0.006236490306  0.006236506057  0.573882191297
  0.341699218750  0.005822868045  0.005822882581  0.572363402990
  0.342578125000  0.005426282862  0.005426295995  0.570890319192
  0.343457031250  0.005047983235  0.005047994866  0.569462557001
  0.344335937500  0.004688812038  0.004688822140  0.568079578116
  0.345214843750  0.004349254155  0.004349262757  0.566740709951
  0.346093750000  0.004029484719  0.004029491894  0.565445165365
  0.346972656250  0.003729416265  0.003729422115  0.564192060869
  0.347851562500  0.003448743465  0.003448748111  0.562980433279
  0.348730468750  0.003186984575  0.003186988147  0.561809254802
  0.349609375000  0.002943519016  0.002943521647  0.560677446600
  0.350488281250  0.002717620813  0.002717622634  0.559583890913
  0.351367187500  0.002508487842  0.002508488976  0.558527441806
  0.352246093750  0.002315266961  0.002315267523  0.557506934659
  0.353125000000  0.002137075279  0.002137075371  0.556521194485
  0.354003906250  0.001973017825  0.001973017540  0.555569043200
  0.354882812500  0.001822201986  0.001822201405  0.554649305914
  0.355761718750  0.001683749060  0.001683748251  0.553760816372
  0.356640625000  0.001556803276  0.001556802300  0.552902421601
  0.357519531250  0.001440538655  0.001440537562  0.552072985873
  0.358398437500  0.001334164007  0.001334162837  0.551271394035
  0.359277343750  0.001236926377  0.001236925164  0.550496554294
  0.360156250000  0.001148113212  0.001148111984  0.549747400505
  0.361035156250  0.001067053471  0.001067052250  0.549022894020
  0.361914062500  0.000993117897  0.000993116699  0.548322025158
  0.362792968750  0.000925718619  0.000925717456  0.547643814322
  0.363671875000  0.000864308241  0.000864307123  0.546987312827
  0.364550781250  0.000808378547  0.000808377481  0.546351603452
  0.365429687500  0.000757458922  0.000757457912  0.545735800768
  0.366308593750  0.000711114574  0.000711113622  0.545139051255
  0.367187500000  0.000668944639  0.000668943745  0.544560533250
  0.368066406250  0.000630580215  0.000630579380  0.543999456736
