radius      S_expected         S_actual            Error 
  0.100000000000  0.207031273120  0.207030557721  0.444057466376
  0.100878906250  0.207715012433  0.207715370123  0.450099356477
  0.101757812500  0.208359089214  0.208359446870  0.456114680646
  0.102636718750  0.208964584959  0.208964942583  0.462103511805
  0.103515625000  0.209532544471  0.209532902067  0.468065923200
  0.104394531250  0.210063977405  0.210064334978  0.474001988380
  0.105273437500  0.210559859744  0.210560217296  0.479911781177
  0.106152343750  0.211021135185  0.211021492720  0.485795375683
  0.107031250000  0.211448716471  0.211449073993  0.491652846226
  0.107910156250  0.211843486651  0.211843844164  0.497484267350
  0.108789062500  0.212206300281  0.212206657788  0.503289713790
  0.109667968750  0.212537984565  0.212538342070  0.509069260450
  0.110546875000  0.212839340448  0.212839697953  0.514822982379
  0.111425781250  0.213111143645  0.213111501155  0.520550954748
  0.112304687500  0.213354145636  0.213354503155  0.526253252831
  0.113183593750  0.213569074607  0.213569432138  0.531929951973
  0.114062500000  0.213756636343  0.213756993890  0.537581127574
  0.114941406250  0.213917515093  0.213917872659  0.543206855065
  0.115820312500  0.214052374382  0.214052731970  0.548807209882
  0.116699218750  0.214161857795  0.214162215410  0.554382267445
  0.117578125000  0.214246589723  0.214246947368  0.559932103135
  0.118457031250  0.214307176077  0.214307533754  0.565456792272
  0.119335937500  0.214344204965  0.214344562679  0.570956410092
  0.120214843750  0.214358247349  0.214358605103  0.576431031725
  0.121093750000  0.214349857665  0.214350215463  0.581880732175
  0.121972656250  0.214319574421  0.214319932265  0.587305586295
  0.122851562500  0.214267920765  0.214268278659  0.592705668772
  0.123730468750  0.214195405034  0.214195762981  0.598081054100
  0.124609375000  0.214102521275  0.214102879279  0.603431816564
  0.125488281250  0.213989749748  0.213990107813  0.608758030219
  0.126367187500  0.213857557406  0.213857915534  0.614059768870
  0.127246093750  0.213706398353  0.213706756548  0.619337106057
  0.128125000000  0.213536714289  0.213537072554  0.624590115030
  0.129003906250  0.213348934931  0.213349293269  0.629818868740
  0.129882812500  0.213143478418  0.213143836833  0.635023439815
  0.130761718750  0.212920751704  0.212921110200  0.640203900546
  0.131640625000  0.212681150931  0.212681509510  0.645360322873
  0.132519531250  0.212425061787  0.212425420451  0.650492778365
  0.133398437500  0.212152859850  0.212153218604  0.655601338212
  0.134277343750  0.211864910924  0.211865269771  0.660686073204
  0.135156250000  0.211561571354  0.211561930296  0.665747053722
  0.136035156250  0.211243188331  0.211243547372  0.670784349726
  0.136914062500  0.210910100192  0.210910459334  0.675798030739
  0.137792968750  0.210562636695  0.210562995942  0.680788165838
  0.138671875000  0.210201119298  0.210201478654  0.685754823645
  0.139550781250  0.209825861421  0.209826220887  0.690698072313
  0.140429687500  0.209437168691  0.209437528271  0.695617979520
  0.141308593750  0.209035339194  0.209035698891  0.700514612458
  0.142187500000  0.208620663703  0.208621023519  0.705388037826
  0.143066406250  0.208193425903  0.208193785842  0.710238321825
  0.143945312500  0.207753902611  0.207754262676  0.715065530144
  0.144824218750  0.207302363984  0.207302724178  0.719869727965
  0.145703125000  0.206839073720  0.206839434044  0.724650979946
  0.146582031250  0.206364289249  0.206364649708  0.729409350224
  0.147460937500  0.205878261926  0.205878622522  0.734144902409
  0.148339843750  0.205381237209  0.205381597944  0.738857699580
  0.149218750000  0.204873454830  0.204873815708  0.743547804280
  0.150097656250  0.204355148970  0.204355509993  0.748215278519
  0.150976562500  0.203826548412  0.203826909583  0.752860183766
  0.151855468750  0.203287876708  0.203288238029  0.757482580953
  0.152734375000  0.202739352320  0.202739713795  0.762082530471
  0.153613281250  0.202181188773  0.202181550404  0.766660092174
  0.154492187500  0.201613594793  0.201613956582  0.771215325374
  0.155371093750  0.201036774444  0.201037136393  0.775748288845
  0.156250000000  0.200450927257  0.200451289370  0.780259040827
  0.157128906250  0.199856248361  0.199856610640  0.784747639023
  0.158007812500  0.199252928605  0.199253291052  0.789214140605
  0.158886718750  0.198641154673  0.198641517291  0.793658602214
  0.159765625000  0.198021109204  0.198021471996  0.798081079969
  0.160644531250  0.197392970899  0.197393333867  0.802481629462
  0.161523437500  0.196756914632  0.196757277778  0.806860305772
  0.162402343750  0.196113111551  0.196113474877  0.811217163460
  0.163281250000  0.195461729178  0.195462092687  0.815552256582
  0.164160156250  0.194802931512  0.194803295206  0.819865638688
  0.165039062500  0.194136879114  0.194137242996  0.824157362834
  0.165917968750  0.193463729209  0.193464093280  0.828427481580
  0.166796875000  0.192783635763  0.192784000026  0.832676047004
  0.167675781250  0.192096749579  0.192097114036  0.836903110702
  0.168554687500  0.191403218373  0.191403583025  0.841108723800
  0.169433593750  0.190703186855  0.190703551706  0.845292936955
  0.170312500000  0.189996796811  0.189997161862  0.849455800371
  0.171191406250  0.189284187173  0.189284552426  0.853597363795
  0.172070312500  0.188565494096  0.188565859553  0.857717676535
  0.172949218750  0.187840851027  0.187841216691  0.861816787460
  0.173828125000  0.187110388774  0.187110754645  0.865894745015
  0.174707031250  0.186374235572  0.186374601654  0.869951597222
  0.175585937500  0.185632517149  0.185632883442  0.873987391691
  0.176464843750  0.184885356787  0.184885723295  0.878002175631
  0.177343750000  0.184132875384  0.184133242108  0.881995995855
  0.178222656250  0.183375191514  0.183375558455  0.885968898788
  0.179101562500  0.182612421479  0.182612788640  0.889920930479
  0.179980468750  0.181844679373  0.181845046754  0.893852136605
  0.180859375000  0.181072077127  0.181072444731  0.897762562483
  0.181738281250  0.180294724568  0.180295092396  0.901652253080
  0.182617187500  0.179512729466  0.179513097520  0.905521253016
  0.183496093750  0.178726197586  0.178726565868  0.909369606578
  0.184375000000  0.177935232734  0.177935601245  0.913197357725
  0.185253906250  0.177139936803  0.177140305546  0.917004550099
  0.186132812500  0.176340409822  0.176340778797  0.920791227035
  0.187011718750  0.175536749996  0.175537119204  0.924557431564
  0.187890625000  0.174729053749  0.174729423193  0.928303206428
  0.188769531250  0.173917415768  0.173917785449  0.932028594084
  0.189648437500  0.173101929042  0.173102298961  0.935733636714
  0.190527343750  0.172282684901  0.172283055059  0.939418376236
  0.191406250000  0.171459773053  0.171460143452  0.943082854306
  0.192285156250  0.170633281625  0.170633652265  0.946727112333
  0.193164062500  0.169803297193  0.169803668077  0.950351191483
  0.194042968750  0.168969904825  0.168970275953  0.953955132688
  0.194921875000  0.168133188106  0.168133559480  0.957538976656
  0.195800781250  0.167293229180  0.167293600800  0.961102763874
  0.196679687500  0.166450108775  0.166450480643  0.964646534623
  0.197558593750  0.165603906239  0.165604278356  0.968170328978
  0.198437500000  0.164754699570  0.164755071937  0.971674186821
  0.199316406250  0.163902565443  0.163902938062  0.975158147846
  0.200195312500  0.163047579243  0.163047952113  0.978622251567
  0.201074218750  0.162189815089  0.162190188213  0.982066537325
  0.201953125000  0.161329345867  0.161329719245  0.985491044295
  0.202832031250  0.160466243250  0.160466616882  0.988895811494
  0.203710937500  0.159600577729  0.159600951617  0.992280877785
  0.204589843750  0.158732418636  0.158732792781  0.995646281886
  0.205468750000  0.157861834172  0.157862208574  0.998992062378
  0.206347656250  0.156988891425  0.156989266085  1.002318257707
  0.207226562500  0.156113656401  0.156114031319  1.005624906193
  0.208105468750  0.155236194039  0.155236569217  1.008912046037
  0.208984375000  0.154356568241  0.154356943679  1.012179715326
  0.209863281250  0.153474841887  0.153475217586  1.015427952037
  0.210742187500  0.152591076861  0.152591452821  1.018656794044
  0.211621093750  0.151705334070  0.151705710292  1.021866279127
  0.212500000000  0.150817673461  0.150818049946  1.025056444970
  0.213378906250  0.149928154048  0.149928530795  1.028227329175
  0.214257812500  0.149036833923  0.149037210933  1.031378969259
  0.215136718750  0.148143770280  0.148144147554  1.034511402665
  0.216015625000  0.147249019430  0.147249396968  1.037624666764
  0.216894531250  0.146352636822  0.146353014625  1.040718798859
  0.217773437500  0.145454677058  0.145455055125  1.043793836194
  0.218652343750  0.144555193910  0.144555572242  1.046849815953
  0.219531250000  0.143654240336  0.143654618934  1.049886775268
  0.220410156250  0.142751868499  0.142752247362  1.052904751220
  0.221289062500  0.141848129779  0.141848508908  1.055903780848
  0.222167968750  0.140943074791  0.140943454185  1.058883901149
  0.223046875000  0.140036753397  0.140037133058  1.061845149080
  0.223925781250  0.139129214726  0.139129594653  1.064787561569
  0.224804687500  0.138220507181  0.138220887374  1.067711175512
  0.225683593750  0.137310678458  0.137311058917  1.070616027778
  0.226562500000  0.136399775559  0.136400156284  1.073502155215
  0.227441406250  0.135487844803  0.135488225794  1.076369594649
  0.228320312500  0.134574931841  0.134575313099  1.079218382890
  0.229199218750  0.133661081669  0.133661463192  1.082048556735
  0.230078125000  0.132746338637  0.132746720426  1.084860152969
  0.230957031250  0.131830746465  0.131831128519  1.087653208371
  0.231835937500  0.130914348253  0.130914730573  1.090427759713
  0.232714843750  0.129997186493  0.129997569078  1.093183843765
  0.233593750000  0.129079303078  0.129079685928  1.095921497296
  0.234472656250  0.128160739318  0.128161122433  1.098640757078
  0.235351562500  0.127241535945  0.127241919324  1.101341659886
  0.236230468750  0.126321733127  0.126322116770  1.104024242504
  0.237109375000  0.125401370478  0.125401754384  1.106688541722
  0.237988281250  0.124480487066  0.124480871235  1.109334594343
  0.238867187500  0.123559121425  0.123559505857  1.111962437181
  0.239746093750  0.122637311564  0.122637696259  1.114572107066
  0.240625000000  0.121715094977  0.121715479933  1.117163640842
  0.241503906250  0.120792508648  0.120792893865  1.119737075373
  0.242382812500  0.119869589067  0.119869974545  1.122292447542
  0.243261718750  0.118946372232  0.118946757970  1.124829794251
  0.244140625000  0.118022893664  0.118023279661  1.127349152427
  0.245019531250  0.117099188407  0.117099574663  1.129850559021
  0.245898437500  0.116175291046  0.116175677560  1.132334051005
  0.246777343750  0.115251235707  0.115251622478  1.134799665383
  0.247656250000  0.114327056070  0.114327443097  1.137247439182
  0.248535156250  0.113402785373  0.113403172655  1.139677409460
  0.249414062500  0.112478456421  0.112478843958  1.142089613304
  0.250292968750  0.111554101594  0.111554489386  1.144484087830
  0.251171875000  0.110629752856  0.110630140901  1.146860870188
  0.252050781250  0.109705441755  0.109705830053  1.149219997559
  0.252929687500  0.108781199439  0.108781587987  1.151561507157
  0.253808593750  0.107857056655  0.107857445454  1.153885436230
  0.254687500000  0.106933043760  0.106933432808  1.156191822061
  0.255566406250  0.106009190727  0.106009580024  1.158480701969
  0.256445312500  0.105085527151  0.105085916695  1.160752113306
  0.257324218750  0.104162082253  0.104162472043  1.163006093462
  0.258203125000  0.103238884889  0.103239274925  1.165242679866
  0.259082031250  0.102315963554  0.102316353834  1.167461909980
  0.259960937500  0.101393346391  0.101393736914  1.169663821308
  0.260839843750  0.100471061191  0.100471451956  1.171848451389
  0.261718750000  0.099549135405  0.099549526410  1.174015837803
  0.262597656250  0.098627596143  0.098627987388  1.176166018165
  0.263476562500  0.097706470186  0.097706861669  1.178299030134
  0.264355468750  0.096785783986  0.096786175706  1.180414911403
  0.265234375000  0.095865563673  0.095865955628  1.182513699710
  0.266113281250  0.094945835061  0.094946227250  1.184595432828
  0.266992187500  0.094026623651  0.094027016073  1.186660148573
  0.267871093750  0.093107954637  0.093108347291  1.188707884798
  0.268750000000  0.092189852912  0.092190245797  1.190738679397
  0.269628906250  0.091272343070  0.091272736183  1.192752570306
  0.270507812500  0.090355449410  0.090355842751  1.194749595499
  0.271386718750  0.089439195946  0.089439589512  1.196729792990
  0.272265625000  0.088523606404  0.088524000194  1.198693200834
  0.273144531250  0.087608704232  0.087609098245  1.200639857125
  0.274023437500  0.086694512600  0.086694906835  1.202569799997
  0.274902343750  0.085781054409  0.085781448863  1.204483067624
  0.275781250000  0.084868352289  0.084868746961  1.206379698221
  0.276660156250  0.083956428608  0.083956823497  1.208259730040
  0.277539062500  0.083045305474  0.083045700578  1.210123201374
  0.278417968750  0.082135004737  0.082135400055  1.211970150555
  0.279296875000  0.081225547998  0.081225943527  1.213800615955
  0.280175781250  0.080316956604  0.080317352344  1.215614635983
  0.281054687500  0.079409251662  0.079409647610  1.217412249088
  0.281933593750  0.078502454034  0.078502850189  1.219193493757
  0.282812500000  0.077596584345  0.077596980704  1.220958408514
  0.283691406250  0.076691662984  0.076692059547  1.222707031925
  0.284570312500  0.075787710110  0.075788106874  1.224439402588
  0.285449218750  0.074884745652  0.074885142615  1.226155559144
  0.286328125000  0.073982789315  0.073983186476  1.227855540266
  0.287207031250  0.073081860582  0.073082257939  1.229539384668
  0.288085937500  0.072181978717  0.072182376268  1.231207131098
  0.288964843750  0.071283162767  0.071283560510  1.232858818342
  0.289843750000  0.070385431568  0.070385829501  1.234494485221
  0.290722656250  0.069488803744  0.069489201866  1.236114170591
  0.291601562500  0.068593297714  0.068593696022  1.237717913345
  0.292480468750  0.067698931692  0.067699330184  1.239305752409
  0.293359375000  0.066805723688  0.066806122363  1.240877726745
  0.294238281250  0.065913691518  0.065914090373  1.242433875348
  0.295117187500  0.065022852797  0.065023251831  1.243974237249
  0.295996093750  0.064133224949  0.064133624160  1.245498851509
  0.296875000000  0.063244825207  0.063245224592  1.247007757227
  0.297753906250  0.062357670614  0.062358070172  1.248500993530
  0.298632812500  0.061471778030  0.061472177758  1.249978599581
  0.299511718750  0.060587164127  0.060587564024  1.251440614573
  0.300390625000  0.059703845400  0.059704245463  1.252887077731
  0.301269531250  0.058821838163  0.058822238391  1.254318028312
  0.302148437500  0.057941158553  0.057941558944  1.255733505604
  0.303027343750  0.057061822536  0.057062223086  1.257133548924
  0.303906250000  0.056183845901  0.056184246609  1.258518197620
  0.304785156250  0.055307244271  0.055307645136  1.259887491072
  0.305664062500  0.054432033101  0.054432434119  1.261241468685
  0.306542968750  0.053558227678  0.053558628848  1.262580169897
  0.307421875000  0.052685843128  0.052686244447  1.263903634172
  0.308300781250  0.051814894414  0.051815295881  1.265211901003
  0.309179687500  0.050945396342  0.050945797953  1.266505009912
  0.310058593750  0.050077363557  0.050077765311  1.267783000447
  0.310937500000  0.049210810551  0.049211212446  1.269045912184
  0.311816406250  0.048345751661  0.048346153695  1.270293784724
  0.312695312500  0.047482201074  0.047482603244  1.271526657696
  0.313574218750  0.046620172826  0.046620575130  1.272744570755
  0.314453125000  0.045759680805  0.045760083241  1.273947563580
  0.315332031250  0.044900738753  0.044901141318  1.275135675877
  0.316210937500  0.044043360267  0.044043762960  1.276308947375
  0.317089843750  0.043187558802  0.043187961620  1.277467417828
  0.317968750000  0.042333347672  0.042333750613  1.278611127015
  0.318847656250  0.041480740051  0.041481143112  1.279740114737
  0.319726562500  0.040629748976  0.040630152155  1.280854420820
  0.320605468750  0.039780387346  0.039780790642  1.281954085111
  0.321484375000  0.038932667929  0.038933071338  1.283039147481
  0.322363281250  0.038086603357  0.038087006878  1.284109647822
  0.323242187500  0.037242206133  0.037242609762  1.285165626049
  0.324121093750  0.036399488627  0.036399892363  1.286207122097
  0.325000000000  0.035558463085  0.035558866925  1.287234175924
  0.325878906250  0.034719141622  0.034719545565  1.288246827506
  0.326757812500  0.033881536230  0.033881940273  1.289245116843
  0.327636718750  0.033045658777  0.033046062917  1.290229083950
  0.328515625000  0.032211521008  0.032211925243  1.291198768867
  0.329394531250  0.031379134546  0.031379538875  1.292154211650
  0.330273437500  0.030548510897  0.030548915316  1.293095452375
  0.331152343750  0.029719661445  0.029720065952  1.294022531136
  0.332031250000  0.028892597459  0.028893002053  1.294935488045
  0.332910156250  0.028067330093  0.028067734770  1.295834363234
  0.333789062500  0.027243870385  0.027244275144  1.296719196850
  0.334667968750  0.026422229261  0.026422634098  1.297590029060
  0.335546875000  0.025602417533  0.025602822447  1.298446900044
  0.336425781250  0.024784445905  0.024784850893  1.299289850003
  0.337304687500  0.023968324970  0.023968730030  1.300118919152
  0.338183593750  0.023154065213  0.023154470342  1.300934147722
  0.339062500000  0.022341677012  0.022342082209  1.301735575961
  0.339941406250  0.021531170640  0.021531575902  1.302523244130
  0.340820312500  0.020722556264  0.020722961589  1.303297192506
  0.341699218750  0.019915843948  0.019916249333  1.304057461384
  0.342578125000  0.019111043653  0.019111449097  1.304804091068
  0.343457031250  0.018308165241  0.018308570740  1.305537121880
  0.344335937500  0.017507218470  0.017507624022  1.306256594154
  0.345214843750  0.016708213001  0.016708618605  1.306962548239
  0.346093750000  0.015911158398  0.015911564051  1.307655024496
  0.346972656250  0.015116064126  0.015116469825  1.308334063300
  0.347851562500  0.014322939555  0.014323345298  1.308999705038
  0.348730468750  0.013531793959  0.013532199745  1.309651990109
  0.349609375000  0.012742636519  0.012743042345  1.310290958926
  0.350488281250  0.011955476324  0.011955882187  1.310916651911
  0.351367187500  0.011170322369  0.011170728267  1.311529109501
  0.352246093750  0.010387183559  0.010387589490  1.312128372142
  0.353125000000  0.009606068709  0.009606474671  1.312714480292
  0.354003906250  0.008826986545  0.008827392536  1.313287474418
  0.354882812500  0.008049945705  0.008050351722  1.313847395001
  0.355761718750  0.007274954740  0.007275360781  1.314394282529
  0.356640625000  0.006502022113  0.006502428176  1.314928177502
  0.357519531250  0.005731156204  0.005731562286  1.315449120428
  0.358398437500  0.004962365307  0.004962771407  1.315957151828
  0.359277343750  0.004195657633  0.004196063748  1.316452312227
  0.360156250000  0.003431041311  0.003431447439  1.316934642165
  0.361035156250  0.002668524387  0.002668930525  1.317404182186
  0.361914062500  0.001908114825  0.001908520973  1.317860972844
  0.362792968750  0.001149820512  0.001150226666  1.318305054704
  0.363671875000  0.000393649254  0.000394055412  1.318736468334
  0.364550781250 -0.000360391223 -0.000359985062  1.319155254315
  0.365429687500 -0.001112293267 -0.001111887106  1.319561453232
  0.366308593750 -0.001862049307 -0.001861643148  1.319955105679
  0.367187500000 -0.002609651845 -0.002609245690  1.320336252257
  0.368066406250 -0.003355093459 -0.003354687310  1.320704933575
