radius      S_expected         S_actual            Error 
  0.000000000000  0.000000000000 -0.000000000000  0.000000000000
  0.031250000000  0.181640625000  0.181640625000  0.000000000000
  0.062500000000  0.351562500000  0.351562500000  0.000000000000
  0.093750000000  0.509765625000  0.509765625000  0.000000000000
  0.125000000000  0.656250000000  0.656250000000  0.000000000000
  0.156250000000  0.791015625000  0.791015625000  0.000000000000
  0.187500000000  0.914062500000  0.914062500000  0.000000000000
  0.218750000000  1.025390625000  1.025390625000  0.000000000000
  0.250000000000  1.125000000000  1.125000000000  0.000000000000
  0.281250000000  1.212890625000  1.212890625000  0.000000000000
  0.312500000000  1.289062500000  1.289062500000  0.000000000000
  0.343750000000  1.353515625000  1.353515625000  0.000000000000
  0.375000000000  1.406250000000  1.406250000000  0.000000000000
  0.406250000000  1.447265625000  1.447265625000  0.000000000000
  0.437500000000  1.476562500000  1.476562500000  0.000000000000
  0.468750000000  1.494140625000  1.494140625000  0.000000000000
  0.500000000000  1.500000000000  1.500000000000  0.000000000000
  0.531250000000  1.494140625000  1.494140625000  0.000000000000
  0.562500000000  1.476562500000  1.476562500000  0.000000000000
  0.593750000000  1.447265625000  1.447265625000  0.000000000000
  0.625000000000  1.406250000000  1.406250000000  0.000000000000
  0.656250000000  1.353515625000  1.353515625000  0.000000000000
  0.687500000000  1.289062500000  1.289062500000  0.000000000000
  0.718750000000  1.212890625000  1.212890625000  0.000000000000
  0.750000000000  1.125000000000  1.125000000000  0.000000000000
  0.781250000000  1.025390625000  1.025390625000  0.000000000000
  0.812500000000  0.914062500000  0.914062500000  0.000000000000
  0.843750000000  0.791015625000  0.791015625000  0.000000000000
  0.875000000000  0.656250000000  0.656250000000  0.000000000000
  0.906250000000  0.509765625000  0.509765625000  0.000000000000
  0.937500000000  0.351562500000  0.351562500000  0.000000000000
  0.968750000000  0.181640625000  0.181640625000  0.000000000000
  1.000000000000  0.000000000000  0.000000000000  0.100000001490
