radius      S_expected         S_actual            Error 
  0.100000000000  0.000000000000  0.000000000000  0.070721850433
  0.103515625000  0.008897492653  0.008897493767  0.001412242279
  0.107031250000  0.014940998426  0.014940997685  0.002790082679
  0.110546875000  0.018386142228  0.018386141496  0.004133825533
  0.114062500000  0.019460756189  0.019460755468  0.005443779480
  0.117578125000  0.018368651460  0.018368650752  0.006720256956
  0.121093750000  0.015292783050  0.015292782357  0.007963573624
  0.124609375000  0.010397919814  0.010397919137  0.009174047754
  0.128125000000  0.003832908483  0.003832907824  0.010351999579
  0.131640625000 -0.004267397296 -0.004267397936  0.011497750640
  0.135156250000 -0.013780485906 -0.013780486525  0.012611623140
  0.138671875000 -0.024594768568 -0.024594769166  0.013693939321
  0.142187500000 -0.036608354513 -0.036608355088  0.014745020875
  0.145703125000 -0.049727989847 -0.049727990399  0.015765188412
  0.149218750000 -0.063868134881 -0.063868135409  0.016754760975
  0.152734375000 -0.078950159091 -0.078950159593  0.017714055628
  0.156250000000 -0.094901636396 -0.094901636873  0.018643387109
  0.159765625000 -0.111655726327 -0.111655726779  0.019543067552
  0.163281250000 -0.129150628995 -0.129150629421  0.020413406276
  0.166796875000 -0.147329103682 -0.147329104083  0.021254709643
  0.170312500000 -0.166138042481 -0.166138042856  0.022067280973
  0.173828125000 -0.185528091693 -0.185528092042  0.022851420522
  0.177343750000 -0.205453314801 -0.205453315126  0.023607425501
  0.180859375000 -0.225870891734 -0.225870892035  0.024335590147
  0.184375000000 -0.246740849886 -0.246740850164  0.025036205821
  0.187890625000 -0.268025823017 -0.268025823273  0.025709561147
  0.191406250000 -0.289690834681 -0.289690834915  0.026355942164
  0.194921875000 -0.311703103277 -0.311703103491  0.026975632501
  0.198437500000 -0.334031866233 -0.334031866427  0.027568913560
  0.201953125000 -0.356648221123 -0.356648221299  0.028136064715
  0.205468750000 -0.379524981835 -0.379524981994  0.028677363497
  0.208984375000 -0.402636548125 -0.402636548269  0.029193085797
  0.212500000000 -0.425958787102 -0.425958787231  0.029683506050
  0.216015625000 -0.449468925377 -0.449468925493  0.030148897420
  0.219531250000 -0.473145450757 -0.473145450861  0.030589531978
  0.223046875000 -0.496968022490 -0.496968022585  0.031005680863
  0.226562500000 -0.520917389200 -0.520917389286  0.031397614438
  0.230078125000 -0.544975313732 -0.544975313809  0.031765602435
  0.233593750000 -0.569124504230 -0.569124504301  0.032109914083
  0.237109375000 -0.593348550849 -0.593348550915  0.032430818231
  0.240625000000 -0.617631867539 -0.617631867601  0.032728583452
  0.244140625000 -0.641959638452 -0.641959638511  0.033003478144
  0.247656250000 -0.666317768518 -0.666317768575  0.033255770608
  0.251171875000 -0.690692837816 -0.690692837872  0.033485729131
  0.254687500000 -0.715072059408 -0.715072059464  0.033693622043
  0.258203125000 -0.739443240311 -0.739443240367  0.033879717779
  0.261718750000 -0.763794745342 -0.763794745399  0.034044284918
  0.265234375000 -0.788115463588 -0.788115463647  0.034187592229
  0.268750000000 -0.812394777278 -0.812394777340  0.034309908696
  0.272265625000 -0.836622532854 -0.836622532918  0.034411503545
  0.275781250000 -0.860789014058 -0.860789014125  0.034492646260
  0.279296875000 -0.884884916883 -0.884884916952  0.034553606597
  0.282812500000 -0.908901326225 -0.908901326297  0.034594654588
  0.286328125000 -0.932829694109 -0.932829694184  0.034616060547
  0.289843750000 -0.956661819376 -0.956661819452  0.034618095065
  0.293359375000 -0.980389828699 -0.980389828778  0.034601029003
  0.296875000000 -1.004006158858 -1.004006158938  0.034565133489
  0.300390625000 -1.027503540146 -1.027503540228  0.034510679899
  0.303906250000 -1.050874980863 -1.050874980945  0.034437939847
  0.307421875000 -1.074113752783 -1.074113752865  0.034347185168
  0.310937500000 -1.097213377561 -1.097213377641  0.034238687894
  0.314453125000 -1.120167613978 -1.120167614057  0.034112720241
  0.317968750000 -1.142970446007 -1.142970446084  0.033969554582
  0.321484375000 -1.165616071609 -1.165616071682  0.033809463425
  0.325000000000 -1.188098892230 -1.188098892299  0.033632719389
  0.328515625000 -1.210413502952 -1.210413503015  0.033439595179
  0.332031250000 -1.232554683244 -1.232554683302  0.033230363559
  0.335546875000 -1.254517388294 -1.254517388345  0.033005297328
  0.339062500000 -1.276296740858 -1.276296740901  0.032764669290
  0.342578125000 -1.297888023618 -1.297888023652  0.032508752231
  0.346093750000 -1.319286672000 -1.319286672025  0.032237818889
  0.349609375000 -1.340488267433 -1.340488267448  0.031952141928
  0.353125000000 -1.361488531016 -1.361488531021  0.031651993911
  0.356640625000 -1.382283317560 -1.382283317553  0.031337647273
  0.360156250000 -1.402868609998 -1.402868609979  0.031009374294
  0.363671875000 -1.423240514123 -1.423240514091  0.030667447075
  0.367187500000 -1.443395253638 -1.443395253594  0.030312137511
  0.370703125000 -1.463329165506 -1.463329165448  0.029943717264
  0.374218750000 -1.483038695558 -1.483038695487  0.029562457741
  0.377734375000 -1.502520394369 -1.502520394285  0.029168630070
  0.381250000000 -1.521770913359 -1.521770913262  0.028762505075
  0.384765625000 -1.540787001121 -1.540787001010  0.028344353255
  0.388281250000 -1.559565499943 -1.559565499820  0.027914444759
  0.391796875000 -1.578103342532 -1.578103342396  0.027473049370
  0.395312500000 -1.596397548895 -1.596397548747  0.027020436482
  0.398828125000 -1.614445223398 -1.614445223238  0.026556875080
  0.402343750000 -1.632243551958 -1.632243551787  0.026082633724
  0.405859375000 -1.649789799379 -1.649789799198  0.025597980530
  0.409375000000 -1.667081306812 -1.667081306622  0.025103183154
  0.412890625000 -1.684115489326 -1.684115489127  0.024598508779
  0.416406250000 -1.700889833583 -1.700889833376  0.024084224096
  0.419921875000 -1.717401895613 -1.717401895399  0.023560595295
  0.423437500000 -1.733649298666 -1.733649298447  0.023027888050
  0.426953125000 -1.749629731151 -1.749629730928  0.022486367511
  0.430468750000 -1.765340944640 -1.765340944413  0.021936298292
  0.433984375000 -1.780780751938 -1.780780751708  0.021377944462
  0.437500000000 -1.795947025209 -1.795947024979  0.020811569538
  0.441015625000 -1.810837694161 -1.810837693931  0.020237436478
  0.444531250000 -1.825450744270 -1.825450744041  0.019655807677
  0.448046875000 -1.839784215050 -1.839784214823  0.019066944960
  0.451562500000 -1.853836198367 -1.853836198144  0.018471109580
  0.455078125000 -1.867604836786 -1.867604836568  0.017868562217
  0.458593750000 -1.881088321951 -1.881088321738  0.017259562975
  0.462109375000 -1.894284892994 -1.894284892788  0.016644371384
  0.465625000000 -1.907192834984 -1.907192834785  0.016023246398
  0.469140625000 -1.919810477395 -1.919810477204  0.015396446400
  0.472656250000 -1.932136192604 -1.932136192423  0.014764229206
  0.476171875000 -1.944168394421 -1.944168394250  0.014126852064
  0.479687500000 -1.955905536641 -1.955905536479  0.013484571664
  0.483203125000 -1.967346111626 -1.967346111476  0.012837644145
  0.486718750000 -1.978488648922 -1.978488648782  0.012186325095
  0.490234375000 -1.989331713889 -1.989331713761  0.011530869567
  0.493750000000 -1.999873906385 -1.999873906267  0.010871532083
  0.497265625000 -2.010113859458 -2.010113859352  0.010208566646
  0.500781250000 -2.020050238092 -2.020050237997  0.009542226747
  0.504296875000 -2.029681737973 -2.029681737890  0.008872765380
  0.507812500000 -2.039007084304 -2.039007084231  0.008200435053
  0.511328125000 -2.048025030645 -2.048025030583  0.007525487800
  0.514843750000 -2.056734357811 -2.056734357759  0.006848175191
  0.518359375000 -2.065133872795 -2.065133872752  0.006168748353
  0.521875000000 -2.073222407747 -2.073222407712  0.005487457978
  0.525390625000 -2.080998818993 -2.080998818966  0.004804554340
  0.528906250000 -2.088461986103 -2.088461986082  0.004120287311
  0.532421875000 -2.095610811006 -2.095610810991  0.003434906375
  0.535937500000 -2.102444217156 -2.102444217147  0.002748660646
  0.539453125000 -2.108961148752 -2.108961148746  0.002061798882
  0.542968750000 -2.115160569999 -2.115160569996  0.001374569505
  0.546484375000 -2.121041464433 -2.121041464431  0.000687220613
  0.550000000000 -2.126602834291 -2.126602834290  0.000000000001
  0.553515625000 -2.131843699935 -2.131843699934  0.000686844826
  0.557031250000 -2.136763099331 -2.136763099328  0.001373066629
  0.560546875000 -2.141360087571 -2.141360087565  0.002058418427
  0.564062500000 -2.145633736455 -2.145633736445  0.002742653472
  0.567578125000 -2.149583134118 -2.149583134103  0.003425525238
  0.571093750000 -2.153207384702 -2.153207384682  0.004106787401
  0.574609375000 -2.156505608083 -2.156505608056  0.004786193824
  0.578125000000 -2.159476939629 -2.159476939594  0.005463498541
  0.581640625000 -2.162120530013 -2.162120529970  0.006138455737
  0.585156250000 -2.164435545059 -2.164435545006  0.006810819740
  0.588671875000 -2.166421165621 -2.166421165559  0.007480344999
  0.592187500000 -2.168076587506 -2.168076587433  0.008146786072
  0.595703125000 -2.169401021416 -2.169401021333  0.008809897614
  0.599218750000 -2.170393692928 -2.170393692834  0.009469434359
  0.602734375000 -2.171053842487 -2.171053842382  0.010125151109
  0.606250000000 -2.171380725430 -2.171380725313  0.010776802722
  0.609765625000 -2.171373612016 -2.171373611888  0.011424144100
  0.613281250000 -2.171031787481 -2.171031787341  0.012066930176
  0.616796875000 -2.170354552089 -2.170354551938  0.012704915907
  0.620312500000 -2.169341221199 -2.169341221038  0.013337856262
  0.623828125000 -2.167991125330 -2.167991125158  0.013965506212
  0.627343750000 -2.166303610222 -2.166303610041  0.014587620725
  0.630859375000 -2.164278036898 -2.164278036708  0.015203954757
  0.634375000000 -2.161913781711 -2.161913781512  0.015814263245
  0.637890625000 -2.159210236382 -2.159210236176  0.016418301103
  0.641406250000 -2.156166808025 -2.156166807812  0.017015823217
  0.644921875000 -2.152782919153 -2.152782918934  0.017606584440
  0.648437500000 -2.149058007663 -2.149058007440  0.018190339590
  0.651953125000 -2.144991526802 -2.144991526576  0.018766843450
  0.655468750000 -2.140582945105 -2.140582944876  0.019335850764
  0.658984375000 -2.135831746306 -2.135831746076  0.019897116240
  0.662500000000 -2.130737429230 -2.130737428999  0.020450394546
  0.666015625000 -2.125299507645 -2.125299507416  0.020995440320
  0.669531250000 -2.119517510096 -2.119517509869  0.021532008164
  0.673046875000 -2.113390979695 -2.113390979472  0.022059852654
  0.676562500000 -2.106919473899 -2.106919473679  0.022578728343
  0.680078125000 -2.100102564239 -2.100102564026  0.023088389764
  0.683593750000 -2.092939836039 -2.092939835832  0.023588591442
  0.687109375000 -2.085430888088 -2.085430887889  0.024079087895
  0.690625000000 -2.077575332299 -2.077575332108  0.024559633647
  0.694140625000 -2.069372793333 -2.069372793152  0.025029983235
  0.697656250000 -2.060822908207 -2.060822908036  0.025489891220
  0.701171875000 -2.051925325867 -2.051925325707  0.025939112196
  0.704687500000 -2.042679706756 -2.042679706607  0.026377400803
  0.708203125000 -2.033085722351 -2.033085722215  0.026804511739
  0.711718750000 -2.023143054696 -2.023143054573  0.027220199770
  0.715234375000 -2.012851395910 -2.012851395799  0.027624219751
  0.718750000000 -2.002210447695 -2.002210447598  0.028016326630
  0.722265625000 -1.991219920835 -1.991219920752  0.028396275470
  0.725781250000 -1.979879534690 -1.979879534619  0.028763821464
  0.729296875000 -1.968189016683 -1.968189016626  0.029118719946
  0.732812500000 -1.956148101804 -1.956148101760  0.029460726411
  0.736328125000 -1.943756532103 -1.943756532071  0.029789596533
  0.739843750000 -1.931014056202 -1.931014056183  0.030105086178
  0.743359375000 -1.917920428812 -1.917920428805  0.030406951425
  0.746875000000 -1.904475410267 -1.904475410272  0.030694948582
  0.750390625000 -1.890678766071 -1.890678766086  0.030968834204
  0.753906250000 -1.876530266465 -1.876530266491  0.031228365113
  0.757421875000 -1.862029686018 -1.862029686053  0.031473298415
  0.760937500000 -1.847176803232 -1.847176803275  0.031703391521
  0.764453125000 -1.831971400180 -1.831971400231  0.031918402164
  0.767968750000 -1.816413262167 -1.816413262225  0.032118088417
  0.771484375000 -1.800502177415 -1.800502177478  0.032302208717
  0.775000000000 -1.784237936778 -1.784237936847  0.032470521880
  0.778515625000 -1.767620333488 -1.767620333561  0.032622787125
  0.782031250000 -1.750649162924 -1.750649163001  0.032758764089
  0.785546875000 -1.733324222414 -1.733324222493  0.032878212852
  0.789062500000 -1.715645311063 -1.715645311143  0.032980893955
  0.792578125000 -1.697612229606 -1.697612229688  0.033066568423
  0.796093750000 -1.679224780295 -1.679224780377  0.033134997781
  0.799609375000 -1.660482766803 -1.660482766884  0.033185944085
  0.803125000000 -1.641385994154 -1.641385994234  0.033219169935
  0.806640625000 -1.621934268676 -1.621934268754  0.033234438505
  0.810156250000 -1.602127397970 -1.602127398047  0.033231513564
  0.813671875000 -1.581965190902 -1.581965190976  0.033210159502
  0.817187500000 -1.561447457599 -1.561447457671  0.033170141359
  0.820703125000 -1.540574009468 -1.540574009537  0.033111224847
  0.824218750000 -1.519344659216 -1.519344659282  0.033033176389
  0.827734375000 -1.497759220875 -1.497759220938  0.032935763144
  0.831250000000 -1.475817509833 -1.475817509894  0.032818753045
  0.834765625000 -1.453519342863 -1.453519342922  0.032681914837
  0.838281250000 -1.430864538144 -1.430864538202  0.032525018118
  0.841796875000 -1.407852915278 -1.407852915334  0.032347833382
  0.845312500000 -1.384484295292 -1.384484295348  0.032150132070
  0.848828125000 -1.360758500627 -1.360758500683  0.031931686625
  0.852343750000 -1.336675355111 -1.336675355168  0.031692270549
  0.855859375000 -1.312234683907 -1.312234683966  0.031431658469
  0.859375000000 -1.287436313440 -1.287436313502  0.031149626209
  0.862890625000 -1.262280071295 -1.262280071361  0.030845950869
  0.866406250000 -1.236765786088 -1.236765786159  0.030520410910
  0.869921875000 -1.210893287302 -1.210893287379  0.030172786251
  0.873437500000 -1.184662405093 -1.184662405178  0.029802858370
  0.876953125000 -1.158072970059 -1.158072970153  0.029410410414
  0.880468750000 -1.131124812968 -1.131124813073  0.028995227325
  0.883984375000 -1.103817764456 -1.103817764572  0.028557095968
  0.887500000000 -1.076151654675 -1.076151654805  0.028095805268
  0.891015625000 -1.048126312915 -1.048126313058  0.027611146362
  0.894531250000 -1.019741567170 -1.019741567329  0.027102912754
  0.898046875000 -0.990997243681 -0.990997243858  0.026570900477
  0.901562500000 -0.961893166428 -0.961893166623  0.026014908265
  0.905078125000 -0.932429156590 -0.932429156804  0.025434737724
  0.908593750000 -0.902605031965 -0.902605032200  0.024830193504
  0.912109375000 -0.872420606361 -0.872420606616  0.024201083476
  0.915625000000 -0.841875688945 -0.841875689224  0.023547218895
  0.919140625000 -0.810970083574 -0.810970083875  0.022868414562
  0.922656250000 -0.779703588083 -0.779703588409  0.022164488959
  0.926171875000 -0.748075993565 -0.748075993915  0.021435264382
  0.929687500000 -0.716087083615 -0.716087083990  0.020680567031
  0.933203125000 -0.683736633566 -0.683736633966  0.019900227078
  0.936718750000 -0.651024409706 -0.651024410132  0.019094078691
  0.940234375000 -0.617950168490 -0.617950168942  0.018261960017
  0.943750000000 -0.584513655740 -0.584513656217  0.017403713110
  0.947265625000 -0.550714605845 -0.550714606347  0.016519183795
  0.950781250000 -0.516552740971 -0.516552741499  0.015608221482
  0.954296875000 -0.482027770272 -0.482027770823  0.014670678899
  0.957812500000 -0.447139389109 -0.447139389684  0.013706411761
  0.961328125000 -0.411887278301 -0.411887278899  0.012715278364
  0.964843750000 -0.376271103380 -0.376271104000  0.011697139115
  0.968359375000 -0.340290513885 -0.340290514525  0.010651855990
  0.971875000000 -0.303945142678 -0.303945143337  0.009579291932
  0.975390625000 -0.267234605301 -0.267234605979  0.008479310206
  0.978906250000 -0.230158499370 -0.230158500064  0.007351773705
  0.982421875000 -0.192716404008 -0.192716404716  0.006196544238
  0.985937500000 -0.154907879331 -0.154907880052  0.005013481806
  0.989453125000 -0.116732465983 -0.116732466715  0.003802443887
  0.992968750000 -0.078189684723 -0.078189685463  0.002563284747
  0.996484375000 -0.039279036068 -0.039279034954  0.001295854795
  1.000000000000  0.000000000000  0.000000000000  0.100000001490
