radius      S_expected         S_actual            Error 
  0.100000000000  0.207031273120  0.207031273120  0.537163658554
  0.100439453125  0.207378169663  0.207378169663  0.538165216704
  0.100878906250  0.207715012433  0.207715012432  0.539164444982
  0.101318359375  0.208041940168  0.208041940168  0.540161476834
  0.101757812500  0.208359089214  0.208359089214  0.541156445782
  0.102197265625  0.208666593575  0.208666593575  0.542149484460
  0.102636718750  0.208964584959  0.208964584959  0.543140723665
  0.103076171875  0.209253192834  0.209253192834  0.544130291445
  0.103515625000  0.209532544471  0.209532544470  0.545118312211
  0.103955078125  0.209802764989  0.209802764989  0.546104905914
  0.104394531250  0.210063977405  0.210063977405  0.547090187264
  0.104833984375  0.210316302678  0.210316302678  0.548074265020
  0.105273437500  0.210559859744  0.210559859744  0.549057241351
  0.105712890625  0.210794765570  0.210794765570  0.550039211261
  0.106152343750  0.211021135185  0.211021135185  0.551020262108
  0.106591796875  0.211239081726  0.211239081726  0.552000473191
  0.107031250000  0.211448716471  0.211448716471  0.552979915424
  0.107470703125  0.211650148886  0.211650148886  0.553958651095
  0.107910156250  0.211843486651  0.211843486651  0.554936733701
  0.108349609375  0.212028835707  0.212028835707  0.555914207867
  0.108789062500  0.212206300281  0.212206300281  0.556891109340
  0.109228515625  0.212375982929  0.212375982929  0.557867465052
  0.109667968750  0.212537984565  0.212537984565  0.558843293261
  0.110107421875  0.212692404495  0.212692404495  0.559818603745
  0.110546875000  0.212839340448  0.212839340448  0.560793398058
  0.110986328125  0.212978888607  0.212978888607  0.561767669840
  0.111425781250  0.213111143645  0.213111143644  0.562741405164
  0.111865234375  0.213236198744  0.213236198744  0.563714582938
  0.112304687500  0.213354145636  0.213354145636  0.564687175321
  0.112744140625  0.213465074623  0.213465074623  0.565659148181
  0.113183593750  0.213569074607  0.213569074606  0.566630461565
  0.113623046875  0.213666233119  0.213666233118  0.567601070189
  0.114062500000  0.213756636343  0.213756636343  0.568570923934
  0.114501953125  0.213840369145  0.213840369145  0.569539968349
  0.114941406250  0.213917515093  0.213917515093  0.570508145150
  0.115380859375  0.213988156487  0.213988156487  0.571475392721
  0.115820312500  0.214052374382  0.214052374382  0.572441646596
  0.116259765625  0.214110248607  0.214110248607  0.573406839939
  0.116699218750  0.214161857795  0.214161857795  0.574370904004
  0.117138671875  0.214207279400  0.214207279400  0.575333768577
  0.117578125000  0.214246589723  0.214246589723  0.576295362396
  0.118017578125  0.214279863931  0.214279863931  0.577255613558
  0.118457031250  0.214307176077  0.214307176077  0.578214449893
  0.118896484375  0.214328599124  0.214328599124  0.579171799316
  0.119335937500  0.214344204965  0.214344204965  0.580127590162
  0.119775390625  0.214354064438  0.214354064437  0.581081751484
  0.120214843750  0.214358247349  0.214358247349  0.582034213338
  0.120654296875  0.214356822492  0.214356822492  0.582984907028
  0.121093750000  0.214349857665  0.214349857665  0.583933765343
  0.121533203125  0.214337419688  0.214337419688  0.584880722758
  0.121972656250  0.214319574421  0.214319574421  0.585825715615
  0.122412109375  0.214296386783  0.214296386783  0.586768682279
  0.122851562500  0.214267920765  0.214267920765  0.587709563282
  0.123291015625  0.214234239452  0.214234239452  0.588648301428
  0.123730468750  0.214195405034  0.214195405034  0.589584841900
  0.124169921875  0.214151478824  0.214151478824  0.590519132328
  0.124609375000  0.214102521275  0.214102521275  0.591451122857
  0.125048828125  0.214048591991  0.214048591991  0.592380766186
  0.125488281250  0.213989749748  0.213989749748  0.593308017598
  0.125927734375  0.213926052501  0.213926052501  0.594232834975
  0.126367187500  0.213857557406  0.213857557406  0.595155178804
  0.126806640625  0.213784320826  0.213784320826  0.596075012160
  0.127246093750  0.213706398353  0.213706398353  0.596992300696
  0.127685546875  0.213623844814  0.213623844814  0.597907012604
  0.128125000000  0.213536714289  0.213536714289  0.598819118586
  0.128564453125  0.213445060121  0.213445060121  0.599728591804
  0.129003906250  0.213348934931  0.213348934931  0.600635407830
  0.129443359375  0.213248390626  0.213248390626  0.601539544586
  0.129882812500  0.213143478418  0.213143478418  0.602440982289
  0.130322265625  0.213034248828  0.213034248828  0.603339703375
  0.130761718750  0.212920751704  0.212920751704  0.604235692436
  0.131201171875  0.212803036229  0.212803036229  0.605128936145
  0.131640625000  0.212681150931  0.212681150931  0.606019423181
  0.132080078125  0.212555143699  0.212555143699  0.606907144152
  0.132519531250  0.212425061787  0.212425061787  0.607792091520
  0.132958984375  0.212290951830  0.212290951830  0.608674259518
  0.133398437500  0.212152859850  0.212152859850  0.609553644075
  0.133837890625  0.212010831271  0.212010831271  0.610430242735
  0.134277343750  0.211864910924  0.211864910924  0.611304054581
  0.134716796875  0.211715143059  0.211715143059  0.612175080156
  0.135156250000  0.211561571354  0.211561571354  0.613043321384
  0.135595703125  0.211404238924  0.211404238924  0.613908781500
  0.136035156250  0.211243188331  0.211243188331  0.614771464972
  0.136474609375  0.211078461593  0.211078461593  0.615631377429
  0.136914062500  0.210910100192  0.210910100191  0.616488525592
  0.137353515625  0.210738145080  0.210738145080  0.617342917203
  0.137792968750  0.210562636695  0.210562636695  0.618194560959
  0.138232421875  0.210383614960  0.210383614960  0.619043466449
  0.138671875000  0.210201119298  0.210201119298  0.619889644086
  0.139111328125  0.210015188638  0.210015188638  0.620733105054
  0.139550781250  0.209825861421  0.209825861421  0.621573861241
  0.139990234375  0.209633175608  0.209633175608  0.622411925191
  0.140429687500  0.209437168691  0.209437168691  0.623247310044
  0.140869140625  0.209237877697  0.209237877697  0.624080029487
  0.141308593750  0.209035339194  0.209035339194  0.624910097703
  0.141748046875  0.208829589304  0.208829589304  0.625737529325
  0.142187500000  0.208620663703  0.208620663703  0.626562339390
  0.142626953125  0.208408597632  0.208408597632  0.627384543296
  0.143066406250  0.208193425903  0.208193425903  0.628204156761
  0.143505859375  0.207975182905  0.207975182905  0.629021195784
  0.143945312500  0.207753902611  0.207753902611  0.629835676607
  0.144384765625  0.207529618585  0.207529618585  0.630647615683
  0.144824218750  0.207302363984  0.207302363984  0.631457029639
  0.145263671875  0.207072171573  0.207072171573  0.632263935247
  0.145703125000  0.206839073720  0.206839073720  0.633068349396
  0.146142578125  0.206603102410  0.206603102410  0.633870289059
  0.146582031250  0.206364289249  0.206364289249  0.634669771272
  0.147021484375  0.206122665467  0.206122665467  0.635466813108
  0.147460937500  0.205878261926  0.205878261926  0.636261431654
  0.147900390625  0.205631109126  0.205631109126  0.637053643986
  0.148339843750  0.205381237209  0.205381237209  0.637843467157
  0.148779296875  0.205128675963  0.205128675963  0.638630918170
  0.149218750000  0.204873454830  0.204873454830  0.639416013964
  0.149658203125  0.204615602912  0.204615602911  0.640198771400
  0.150097656250  0.204355148970  0.204355148970  0.640979207244
  0.150537109375  0.204092121435  0.204092121435  0.641757338151
  0.150976562500  0.203826548412  0.203826548412  0.642533180656
  0.151416015625  0.203558457682  0.203558457682  0.643306751161
  0.151855468750  0.203287876708  0.203287876708  0.644078065924
  0.152294921875  0.203014832640  0.203014832640  0.644847141049
  0.152734375000  0.202739352320  0.202739352320  0.645613992479
  0.153173828125  0.202461462285  0.202461462285  0.646378635985
  0.153613281250  0.202181188773  0.202181188773  0.647141087160
  0.154052734375  0.201898557726  0.201898557726  0.647901361415
  0.154492187500  0.201613594793  0.201613594793  0.648659473970
  0.154931640625  0.201326325339  0.201326325339  0.649415439848
  0.155371093750  0.201036774444  0.201036774444  0.650169273876
  0.155810546875  0.200744966907  0.200744966907  0.650920990675
  0.156250000000  0.200450927257  0.200450927257  0.651670604661
  0.156689453125  0.200154679746  0.200154679745  0.652418130039
  0.157128906250  0.199856248361  0.199856248361  0.653163580804
  0.157568359375  0.199555656826  0.199555656826  0.653906970736
  0.158007812500  0.199252928605  0.199252928605  0.654648313401
  0.158447265625  0.198948086902  0.198948086902  0.655387622147
  0.158886718750  0.198641154673  0.198641154673  0.656124910109
  0.159326171875  0.198332154621  0.198332154621  0.656860190201
  0.159765625000  0.198021109204  0.198021109204  0.657593475123
  0.160205078125  0.197708040638  0.197708040638  0.658324777358
  0.160644531250  0.197392970899  0.197392970899  0.659054109173
  0.161083984375  0.197075921728  0.197075921728  0.659781482618
  0.161523437500  0.196756914632  0.196756914632  0.660506909533
  0.161962890625  0.196435970889  0.196435970889  0.661230401544
  0.162402343750  0.196113111551  0.196113111551  0.661951970064
  0.162841796875  0.195788357445  0.195788357445  0.662671626299
  0.163281250000  0.195461729178  0.195461729178  0.663389381248
  0.163720703125  0.195133247142  0.195133247142  0.664105245703
  0.164160156250  0.194802931512  0.194802931512  0.664819230257
  0.164599609375  0.194470802251  0.194470802251  0.665531345297
  0.165039062500  0.194136879114  0.194136879114  0.666241601016
  0.165478515625  0.193801181652  0.193801181652  0.666950007410
  0.165917968750  0.193463729209  0.193463729209  0.667656574283
  0.166357421875  0.193124540930  0.193124540930  0.668361311247
  0.166796875000  0.192783635763  0.192783635763  0.669064227729
  0.167236328125  0.192441032460  0.192441032460  0.669765332970
  0.167675781250  0.192096749579  0.192096749579  0.670464636031
  0.168115234375  0.191750805490  0.191750805490  0.671162145793
  0.168554687500  0.191403218373  0.191403218373  0.671857870963
  0.168994140625  0.191054006224  0.191054006224  0.672551820074
  0.169433593750  0.190703186855  0.190703186855  0.673244001491
  0.169873046875  0.190350777900  0.190350777899  0.673934423413
  0.170312500000  0.189996796811  0.189996796811  0.674623093876
  0.170751953125  0.189641260867  0.189641260867  0.675310020755
  0.171191406250  0.189284187173  0.189284187173  0.675995211770
  0.171630859375  0.188925592661  0.188925592661  0.676678674485
  0.172070312500  0.188565494096  0.188565494096  0.677360416316
  0.172509765625  0.188203908074  0.188203908074  0.678040444531
  0.172949218750  0.187840851027  0.187840851027  0.678718766253
  0.173388671875  0.187476339224  0.187476339224  0.679395388466
  0.173828125000  0.187110388774  0.187110388774  0.680070318012
  0.174267578125  0.186743015625  0.186743015625  0.680743561603
  0.174707031250  0.186374235572  0.186374235572  0.681415125817
  0.175146484375  0.186004064251  0.186004064251  0.682085017102
  0.175585937500  0.185632517149  0.185632517148  0.682753241782
  0.176025390625  0.185259609599  0.185259609599  0.683419806059
  0.176464843750  0.184885356787  0.184885356787  0.684084716012
  0.176904296875  0.184509773751  0.184509773751  0.684747977606
  0.177343750000  0.184132875384  0.184132875384  0.685409596691
  0.177783203125  0.183754676436  0.183754676436  0.686069579007
  0.178222656250  0.183375191514  0.183375191514  0.686727930183
  0.178662109375  0.182994435085  0.182994435085  0.687384655745
  0.179101562500  0.182612421479  0.182612421479  0.688039761115
  0.179541015625  0.182229164889  0.182229164889  0.688693251616
  0.179980468750  0.181844679373  0.181844679373  0.689345132473
  0.180419921875  0.181458978854  0.181458978854  0.689995408816
  0.180859375000  0.181072077127  0.181072077127  0.690644085683
  0.181298828125  0.180683987853  0.180683987853  0.691291168024
  0.181738281250  0.180294724568  0.180294724568  0.691936660700
  0.182177734375  0.179904300678  0.179904300678  0.692580568489
  0.182617187500  0.179512729466  0.179512729466  0.693222896087
  0.183056640625  0.179120024090  0.179120024090  0.693863648109
  0.183496093750  0.178726197586  0.178726197586  0.694502829095
  0.183935546875  0.178331262869  0.178331262869  0.695140443510
  0.184375000000  0.177935232734  0.177935232733  0.695776495744
  0.184814453125  0.177538119858  0.177538119858  0.696410990120
  0.185253906250  0.177139936803  0.177139936803  0.697043930893
  0.185693359375  0.176740696014  0.176740696014  0.697675322249
  0.186132812500  0.176340409822  0.176340409822  0.698305168316
  0.186572265625  0.175939090447  0.175939090447  0.698933473156
  0.187011718750  0.175536749996  0.175536749996  0.699560240774
  0.187451171875  0.175133400467  0.175133400467  0.700185475118
  0.187890625000  0.174729053749  0.174729053749  0.700809180082
  0.188330078125  0.174323721624  0.174323721624  0.701431359505
  0.188769531250  0.173917415768  0.173917415768  0.702052017177
  0.189208984375  0.173510147752  0.173510147752  0.702671156838
  0.189648437500  0.173101929042  0.173101929042  0.703288782183
  0.190087890625  0.172692771004  0.172692771004  0.703904896861
  0.190527343750  0.172282684901  0.172282684901  0.704519504476
  0.190966796875  0.171871681896  0.171871681896  0.705132608595
  0.191406250000  0.171459773053  0.171459773053  0.705744212743
  0.191845703125  0.171046969340  0.171046969340  0.706354320409
  0.192285156250  0.170633281625  0.170633281625  0.706962935045
  0.192724609375  0.170218720683  0.170218720683  0.707570060071
  0.193164062500  0.169803297193  0.169803297193  0.708175698874
  0.193603515625  0.169387021743  0.169387021743  0.708779854812
  0.194042968750  0.168969904825  0.168969904825  0.709382531213
  0.194482421875  0.168551956842  0.168551956842  0.709983731379
  0.194921875000  0.168133188106  0.168133188106  0.710583458590
  0.195361328125  0.167713608841  0.167713608841  0.711181716097
  0.195800781250  0.167293229180  0.167293229180  0.711778507136
  0.196240234375  0.166872059171  0.166872059171  0.712373834918
  0.196679687500  0.166450108775  0.166450108775  0.712967702638
  0.197119140625  0.166027387867  0.166027387867  0.713560113477
  0.197558593750  0.165603906239  0.165603906239  0.714151070596
  0.197998046875  0.165179673598  0.165179673598  0.714740577148
  0.198437500000  0.164754699570  0.164754699570  0.715328636271
  0.198876953125  0.164328993697  0.164328993697  0.715915251095
  0.199316406250  0.163902565443  0.163902565443  0.716500424742
  0.199755859375  0.163475424190  0.163475424190  0.717084160326
  0.200195312500  0.163047579243  0.163047579243  0.717666460959
  0.200634765625  0.162619039826  0.162619039826  0.718247329745
  0.201074218750  0.162189815089  0.162189815089  0.718826769792
  0.201513671875  0.161759914104  0.161759914104  0.719404784204
  0.201953125000  0.161329345867  0.161329345867  0.719981376088
  0.202392578125  0.160898119300  0.160898119300  0.720556548555
  0.202832031250  0.160466243250  0.160466243250  0.721130304719
  0.203271484375  0.160033726492  0.160033726492  0.721702647704
  0.203710937500  0.159600577729  0.159600577729  0.722273580639
  0.204150390625  0.159166805590  0.159166805590  0.722843106664
  0.204589843750  0.158732418636  0.158732418636  0.723411228931
  0.205029296875  0.158297425357  0.158297425357  0.723977950607
  0.205468750000  0.157861834172  0.157861834172  0.724543274871
  0.205908203125  0.157425653433  0.157425653433  0.725107204920
  0.206347656250  0.156988891425  0.156988891425  0.725669743971
  0.206787109375  0.156551556364  0.156551556364  0.726230895259
  0.207226562500  0.156113656401  0.156113656401  0.726790662043
  0.207666015625  0.155675199619  0.155675199619  0.727349047605
  0.208105468750  0.155236194039  0.155236194039  0.727906055253
  0.208544921875  0.154796647616  0.154796647616  0.728461688322
  0.208984375000  0.154356568241  0.154356568241  0.729015950176
  0.209423828125  0.153915963742  0.153915963742  0.729568844213
  0.209863281250  0.153474841887  0.153474841887  0.730120373861
  0.210302734375  0.153033210379  0.153033210379  0.730670542584
  0.210742187500  0.152591076861  0.152591076861  0.731219353886
  0.211181640625  0.152148448917  0.152148448917  0.731766811305
  0.211621093750  0.151705334070  0.151705334070  0.732312918424
  0.212060546875  0.151261739783  0.151261739783  0.732857678869
  0.212500000000  0.150817673461  0.150817673461  0.733401096310
  0.212939453125  0.150373142453  0.150373142453  0.733943174465
  0.213378906250  0.149928154048  0.149928154048  0.734483917101
  0.213818359375  0.149482715479  0.149482715479  0.735023328039
  0.214257812500  0.149036833923  0.149036833923  0.735561411153
  0.214697265625  0.148590516501  0.148590516501  0.736098170373
  0.215136718750  0.148143770280  0.148143770280  0.736633609688
  0.215576171875  0.147696602270  0.147696602270  0.737167733150
  0.216015625000  0.147249019430  0.147249019430  0.737700544872
  0.216455078125  0.146801028664  0.146801028664  0.738232049035
  0.216894531250  0.146352636822  0.146352636822  0.738762249889
  0.217333984375  0.145903850705  0.145903850705  0.739291151755
  0.217773437500  0.145454677058  0.145454677058  0.739818759028
  0.218212890625  0.145005122578  0.145005122578  0.740345076180
  0.218652343750  0.144555193910  0.144555193910  0.740870107763
  0.219091796875  0.144104897647  0.144104897647  0.741393858411
  0.219531250000  0.143654240336  0.143654240336  0.741916332844
  0.219970703125  0.143203228471  0.143203228471  0.742437535871
  0.220410156250  0.142751868499  0.142751868499  0.742957472392
  0.220849609375  0.142300166818  0.142300166818  0.743476147401
  0.221289062500  0.141848129779  0.141848129779  0.743993565992
  0.221728515625  0.141395763684  0.141395763684  0.744509733357
  0.222167968750  0.140943074791  0.140943074791  0.745024654797
  0.222607421875  0.140490069307  0.140490069307  0.745538335717
  0.223046875000  0.140036753397  0.140036753397  0.746050781636
  0.223486328125  0.139583133179  0.139583133179  0.746561998189
  0.223925781250  0.139129214726  0.139129214726  0.747071991128
  0.224365234375  0.138675004065  0.138675004065  0.747580766329
  0.224804687500  0.138220507181  0.138220507181  0.748088329794
  0.225244140625  0.137765730013  0.137765730013  0.748594687658
  0.225683593750  0.137310678458  0.137310678458  0.749099846189
  0.226123046875  0.136855358370  0.136855358370  0.749603811795
  0.226562500000  0.136399775559  0.136399775559  0.750106591027
  0.227001953125  0.135943935794  0.135943935794  0.750608190585
  0.227441406250  0.135487844803  0.135487844803  0.751108617320
  0.227880859375  0.135031508270  0.135031508270  0.751607878242
  0.228320312500  0.134574931841  0.134574931841  0.752105980523
  0.228759765625  0.134118121119  0.134118121119  0.752602931501
  0.229199218750  0.133661081669  0.133661081669  0.753098738686
  0.229638671875  0.133203819013  0.133203819013  0.753593409767
  0.230078125000  0.132746338637  0.132746338637  0.754086952614
  0.230517578125  0.132288645985  0.132288645985  0.754579375285
  0.230957031250  0.131830746465  0.131830746465  0.755070686034
  0.231396484375  0.131372645444  0.131372645444  0.755560893311
  0.231835937500  0.130914348253  0.130914348253  0.756050005775
  0.232275390625  0.130455860184  0.130455860184  0.756538032294
  0.232714843750  0.129997186493  0.129997186492  0.757024981953
  0.233154296875  0.129538332397  0.129538332397  0.757510864065
  0.233593750000  0.129079303078  0.129079303078  0.757995688169
  0.234033203125  0.128620103682  0.128620103682  0.758479464044
