radius      S_expected         S_actual            Error 
  0.100000000000  0.207031273120  0.207018571958  0.444057456218
  0.103703703704  0.209649304900  0.209655654954  0.469338395047
  0.107407407407  0.211621637483  0.211627986234  0.494151772165
  0.111111111111  0.213017179853  0.213023528445  0.518503142927
  0.114814814815  0.213895962570  0.213902312128  0.542398120076
  0.118518518519  0.214310526235  0.214316877867  0.565842342963
  0.122222222222  0.214307057489  0.214313412283  0.588841447007
  0.125925925926  0.213926324500  0.213932683522  0.611401034111
  0.129629629630  0.213204452052  0.213210816344  0.633526644808
  0.133333333333  0.212173567411  0.212179937991  0.655223732819
  0.137037037037  0.210862341434  0.210868719290  0.676497642572
  0.140740740741  0.209296444184  0.209302830279  0.697353590066
  0.144444444444  0.207498930430  0.207505325696  0.717796647366
  0.148148148148  0.205490567276  0.205496972613  0.737831730798
  0.151851851852  0.203290113802  0.203296530076  0.757463592843
  0.155555555556  0.200914560724  0.200920988770  0.776696817566
  0.159259259259  0.198379336572  0.198385777188  0.795535819336
  0.162962962963  0.195698485709  0.195704939655  0.813984844500
  0.166666666667  0.192884822578  0.192891290577  0.832047975660
  0.170370370370  0.189950065788  0.189956548525  0.849729138112
  0.174074074074  0.186904955046  0.186911453166  0.867032108061
  0.177777777778  0.183759353429  0.183765867536  0.883960522181
  0.181481481481  0.180522337097  0.180528867754  0.900517888140
  0.185185185185  0.177202274198  0.177208821926  0.916707595739
  0.188888888889  0.173806894456  0.173813459732  0.932532928343
  0.192592592593  0.170343350690  0.170349933949  0.947997074329
  0.196296296296  0.166818273328  0.166824874961  0.963103138327
  0.200000000000  0.163237818836  0.163244439190  0.977854152072
  0.203703703704  0.159607712819  0.159614352197  0.992253084710
  0.207407407407  0.155933288476  0.155939947135  1.006302852471
  0.211111111111  0.152219520967  0.152226199122  1.020006327624
  0.214814814815  0.148471058201  0.148477756022  1.033366346676
  0.218518518519  0.144692248453  0.144698966065  1.046385717804
  0.222222222222  0.140887165192  0.140893902676  1.059067227508
  0.225925925926  0.137059629437  0.137066386830  1.071413646524
  0.229629629630  0.133213229922  0.133220007218  1.083427735006
  0.233333333333  0.129351341312  0.129358138463  1.095112247040
  0.237037037037  0.125477140685  0.125483957601  1.106469934515
  0.240740740741  0.121593622474  0.121600459022  1.117503550418
  0.244444444444  0.117703612015  0.117710468023  1.128215851590
  0.248148148148  0.113809777875  0.113816653130  1.138609601007
  0.251851851852  0.109914643058  0.109921537308  1.148687569630
  0.255555555556  0.106020595226  0.106027508183  1.158452537872
  0.259259259259  0.102129896026  0.102136827364  1.167907296727
  0.262962962963  0.098244689606  0.098251638964  1.177054648619
  0.266666666667  0.094367010414  0.094373977397  1.185897407977
  0.270370370370  0.090498790336  0.090505774515  1.194438401613
  0.274074074074  0.086641865251  0.086648866166  1.202680468905
  0.277777777778  0.082797981038  0.082804998201  1.210626461824
  0.281481481481  0.078968799118  0.078975832009  1.218279244838
  0.285185185185  0.075155901538  0.075162949612  1.225641694708
  0.288888888889  0.071360795666  0.071367858354  1.232716700194
  0.292592592593  0.067584918529  0.067591995236  1.239507161698
  0.296296296296  0.063829640809  0.063836730921  1.246015990852
  0.300000000000  0.060096270554  0.060103373435  1.252246110070
  0.303703703704  0.056386056606  0.056393171601  1.258200452063
  0.307407407407  0.052700191785  0.052707318225  1.263881959347
  0.311111111111  0.049039815852  0.049046953051  1.269293583727
  0.314814814815  0.045406018252  0.045413165514  1.274438285789
  0.318518518519  0.041799840687  0.041806997303  1.279319034386
  0.322222222222  0.038222279497  0.038229444752  1.283938806129
  0.325925925926  0.034674287903  0.034681461072  1.288300584888
  0.329629629630  0.031156778090  0.031163958444  1.292407361310
  0.333333333333  0.027670623170  0.027677809977  1.296262132340
  0.337037037037  0.024216659016  0.024223851544  1.299867900768
  0.340740740741  0.020795685993  0.020802883510  1.303227674784
  0.344444444444  0.017408470585  0.017415672361  1.306344467556
  0.348148148148  0.014055746926  0.014062952237  1.309221296819
  0.351851851852  0.010738218253  0.010745426380  1.311861184488
  0.355555555556  0.007456558272  0.007463768506  1.314267156281
  0.359259259259  0.004211412466  0.004218624107  1.316442241364
  0.362962962963  0.001003399321  0.001010611680  1.318389472009
  0.366666666667 -0.002166888497 -0.002159676094  1.320111883271
  0.370370370370 -0.005298883021 -0.005291671233  1.321612512672
  0.374074074074 -0.008392039921 -0.008384829391  1.322894399912
  0.377777777778 -0.011445837481 -0.011438628833  1.323960586580
  0.381481481481 -0.014459775623 -0.014452569463  1.324814115886
  0.385185185185 -0.017433374973 -0.017426171882  1.325458032403
  0.388888888889 -0.020366175958 -0.020358976498  1.325895381817
  0.392592592593 -0.023257737944 -0.023250542651  1.326129210696
  0.396296296296 -0.026107638403 -0.026100447789  1.326162566257
  0.400000000000 -0.028915472111 -0.028908286660  1.325998496152
  0.403703703704 -0.031680850369 -0.031673670540  1.325640048259
  0.407407407407 -0.034403400257 -0.034396226478  1.325090270480
  0.411111111111 -0.037082763908 -0.037075596580  1.324352210550
  0.414814814815 -0.039718597805 -0.039711437296  1.323428915850
  0.418518518519 -0.042310572098 -0.042303418748  1.322323433228
  0.422222222222 -0.044858369949 -0.044851224065  1.321038808829
  0.425925925926 -0.047361686883 -0.047354548740  1.319578087926
  0.429629629630 -0.049820230170 -0.049813100012  1.317944314764
  0.433333333333 -0.052233718219 -0.052226596254  1.316140532405
  0.437037037037 -0.054601879986 -0.054594766392  1.314169782577
  0.440740740741 -0.056924454406 -0.056917349325  1.312035105539
  0.444444444444 -0.059201189830 -0.059194093373  1.309739539935
  0.448148148148 -0.061431843493 -0.061424755734  1.307286122672
  0.451851851852 -0.063616180975 -0.063609101959  1.304677888786
  0.455555555556 -0.065753975703 -0.065746905438  1.301917871327
  0.459259259259 -0.067845008441 -0.067837946904  1.299009101243
  0.462962962963 -0.069889066817 -0.069882013952  1.295954607270
  0.466666666667 -0.071885944845 -0.071878900564  1.292757415828
  0.470370370370 -0.073835442478 -0.073828406662  1.289420550921
  0.474074074074 -0.075737365163 -0.075730337661  1.285947034046
  0.477777777778 -0.077591523411 -0.077584504044  1.282339884106
  0.481481481481 -0.079397732392 -0.079390720950  1.278602117323
  0.485185185185 -0.081155811528 -0.081148807772  1.274736747165
  0.488888888889 -0.082865584110 -0.082858587775  1.270746784274
  0.492592592593 -0.084526876929 -0.084519887725  1.266635236398
  0.496296296296 -0.086139519918 -0.086132537527  1.262405108330
  0.500000000000 -0.087703345809 -0.087696369890  1.258059401852
  0.503703703704 -0.089218189804 -0.089211219994  1.253601115684
  0.507407407407 -0.090683889262 -0.090676925175  1.249033245437
  0.511111111111 -0.092100283399 -0.092093324632  1.244358783572
  0.514814814815 -0.093467213007 -0.093460259136  1.239580719361
  0.518518518519 -0.094784520176 -0.094777570761  1.234702038853
  0.522222222222 -0.096052048048 -0.096045102633  1.229725724848
  0.525925925926 -0.097269640571 -0.097262698687  1.224654756866
  0.529629629630 -0.098437142276 -0.098430203441  1.219492111130
  0.533333333333 -0.099554398064 -0.099547461786  1.214240760541
  0.537037037037 -0.100621253015 -0.100614318794  1.208903674664
  0.540740740741 -0.101637552205 -0.101630619533  1.203483819715
  0.544444444444 -0.102603140541 -0.102596208905  1.197984158543
  0.548148148148 -0.103517862613 -0.103510931495  1.192407650625
  0.551851851852 -0.104381562557 -0.104374631438  1.186757252051
  0.555555555556 -0.105194083932 -0.105187152295  1.181035915517
  0.559259259259 -0.105955269623 -0.105948336951  1.175246590318
  0.562962962963 -0.106664961742 -0.106658027521  1.169392222333
  0.566666666667 -0.107323001557 -0.107316065280  1.163475754025
  0.570370370370 -0.107929229429 -0.107922290594  1.157500124421
  0.574074074074 -0.108483484764 -0.108476542881  1.151468269108
  0.577777777778 -0.108985605984 -0.108978660569  1.145383120216
  0.581481481481 -0.109435430501 -0.109428481085  1.139247606406
  0.585185185185 -0.109832794717 -0.109825840846  1.133064652850
  0.588888888889 -0.110177534031 -0.110170575263  1.126837181212
  0.592592592593 -0.110469482856 -0.110462518770  1.120568109630
  0.596296296296 -0.110708474659 -0.110701504848  1.114260352682
  0.600000000000 -0.110894341999 -0.110887366080  1.107916821363
  0.603703703704 -0.111026916592 -0.111019934200  1.101540423051
  0.607407407407 -0.111106029374 -0.111099040170  1.095134061469
  0.611111111111 -0.111131510588 -0.111124514254  1.088700636644
  0.614814814815 -0.111103189868 -0.111096186112  1.082243044864
  0.618518518519 -0.111020896346 -0.111013884904  1.075764178629
  0.622222222222 -0.110884458761 -0.110877439394  1.069266926593
  0.625925925926 -0.110693705580 -0.110686678078  1.062754173511
  0.629629629630 -0.110448465123 -0.110441429307  1.056228800173
  0.633333333333 -0.110148565708 -0.110141521427  1.049693683338
  0.637037037037 -0.109793835789 -0.109786782924  1.043151695662
  0.640740740741 -0.109384104110 -0.109377042572  1.036605705622
  0.644444444444 -0.108919199864 -0.108912129598  1.030058577431
  0.648148148148 -0.108398952856 -0.108391873840  1.023513170957
  0.651851851852 -0.107823193676 -0.107816105917  1.016972341630
  0.655555555556 -0.107191753865 -0.107184657407  1.010438940347
  0.659259259259 -0.106504466102 -0.106497361021  1.003915813373
  0.662962962963 -0.105761164379 -0.105754050785  0.997405802235
  0.666666666667 -0.104961684189 -0.104954562225  0.990911743618
  0.670370370370 -0.104105862711 -0.104098732553  0.984436469243
  0.674074074074 -0.103193538996 -0.103186400853  0.977982805757
  0.677777777778 -0.102224554157 -0.102217408273  0.971553574606
  0.681481481481 -0.101198751558 -0.101191598208  0.965151591907
  0.685185185185 -0.100115977004 -0.100108816495  0.958779668317
  0.688888888889 -0.098976078921 -0.098968911593  0.952440608891
  0.692592592593 -0.097778908551 -0.097771734772  0.946137212940
  0.696296296296 -0.096524320128 -0.096517140299  0.939872273884
  0.700000000000 -0.095212171060 -0.095204985610  0.933648579090
  0.703703703704 -0.093842322108 -0.093835131494  0.927468909711
  0.707407407407 -0.092414637553 -0.092407442261  0.921336040516
  0.711111111111 -0.090928985371 -0.090921785911  0.915252739712
  0.714814814815 -0.089385237387 -0.089378034297  0.909221768755
  0.718518518519 -0.087783269440 -0.087776063279  0.903245882152
  0.722222222222 -0.086122961525 -0.086115752878  0.897327827255
  0.725925925926 -0.084404197943 -0.084396987413  0.891470344041
  0.729629629630 -0.082626867432 -0.082619655645  0.885676164880
  0.733333333333 -0.080790863300 -0.080783650896  0.879948014291
  0.737037037037 -0.078896083537 -0.078888871178  0.874288608676
  0.740740740741 -0.076942430937 -0.076935219296  0.868700656046
  0.744444444444 -0.074929813187 -0.074922602953  0.863186855725
  0.748148148148 -0.072858142972 -0.072850934844  0.857749898029
  0.751851851852 -0.070727338046 -0.070720132735  0.852392463933
  0.755555555556 -0.068537321313 -0.068530119537  0.847117224704
  0.759259259259 -0.066288020885 -0.066280823369  0.841926841519
  0.762962962963 -0.063979370132 -0.063972177604  0.836823965042
  0.766666666667 -0.061611307724 -0.061604120917  0.831811234984
  0.770370370370 -0.059183777657 -0.059176597303  0.826891279623
  0.774074074074 -0.056696729274 -0.056689556106  0.822066715289
  0.777777777778 -0.054150117267 -0.054142952013  0.817340145818
  0.781481481481 -0.051543901672 -0.051536745056  0.812714161964
  0.785185185185 -0.048878047853 -0.048870900590  0.808191340763
  0.788888888889 -0.046152526466 -0.046145389266  0.803774244867
  0.792592592593 -0.043367313425 -0.043360186985  0.799465421821
  0.796296296296 -0.040522389841 -0.040515274846  0.795267403298
  0.800000000000 -0.037617741962 -0.037610639082  0.791182704285
  0.803703703704 -0.034653361090 -0.034646270978  0.787213822222
  0.807407407407 -0.031629243494 -0.031622166786  0.783363236081
  0.811111111111 -0.028545390309 -0.028538327621  0.779633405412
  0.814814814815 -0.025401807421 -0.025394759346  0.776026769323
  0.818518518519 -0.022198505344 -0.022191472453  0.772545745423
  0.822222222222 -0.018935499085 -0.018928481923  0.769192728721
  0.825925925926 -0.015612807996 -0.015605807081  0.765970090482
  0.829629629630 -0.012230455616 -0.012223471437  0.762880177049
  0.833333333333 -0.008788469504 -0.008781502522  0.759925308649
  0.837037037037 -0.005286881063 -0.005279931705  0.757107778169
  0.840740740741 -0.001725725348 -0.001718794009  0.754429849947
  0.844444444444  0.001894959130  0.001901872088  0.751893758567
  0.848148148148  0.005575130608  0.005582024858  0.749501707690
  0.851851851852  0.009314744288  0.009321619543  0.747255868944
  0.855555555556  0.013113752563  0.013120608571  0.745158380900
  0.859259259259  0.016972105245  0.016978941793  0.743211348162
  0.862962962963  0.020889749805  0.020896566720  0.741416840613
  0.866666666667  0.024866631617  0.024873428769  0.739776892864
  0.870370370370  0.028902694215  0.028909471512  0.738293503944
  0.874074074074  0.032997879546  0.033004636938  0.736968637295
  0.877777777778  0.037152128234  0.037158865717  0.735804221132
  0.881481481481  0.041365379851  0.041372097462  0.734802149233
  0.885185185185  0.045637573187  0.045644271008  0.733964282234
  0.888888888889  0.049968646527  0.049975324682  0.733292449503
  0.892592592593  0.054358537930  0.054365196590  0.732788451681
  0.896296296296  0.058807185513  0.058813824890  0.732454063965
  0.900000000000  0.063314527729  0.063321148083  0.732291040229
  0.903703703704  0.067880503661  0.067887105294  0.732301118042
  0.907407407407  0.072505053299  0.072511636559  0.732486024683
  0.911111111111  0.077188117834  0.077194683110  0.732847484193
  0.914814814815  0.081929639936  0.081936187664  0.733387225526
  0.918518518519  0.086729564047  0.086736094704  0.734106991812
  0.922222222222  0.091587836657  0.091594350765  0.735008550745
  0.925925925926  0.096504406591  0.096510904712  0.736093706046
  0.929629629630  0.101479225283  0.101485708020  0.737364309930
  0.933333333333  0.106512247051  0.106518715050  0.738822276458
  0.937037037037  0.111603429371  0.111609883316  0.740469595591
  0.940740740741  0.116752733141  0.116759173756  0.742308347719
  0.944444444444  0.121960122945  0.121966550991  0.744340718384
  0.948148148148  0.127225567305  0.127231983580  0.746569012836
  0.951851851852  0.132549038934  0.132555444271  0.748995670047
  0.955555555556  0.137930514981  0.137936910247  0.751623275723
  0.959259259259  0.143369977262  0.143376363358  0.754454573854
  0.962962962963  0.148867412494  0.148873790350  0.757492476317
  0.966666666667  0.154422812512  0.154429183091  0.760740070041
  0.970370370370  0.160036174484  0.160042538777  0.764200621291
  0.974074074074  0.165707501117  0.165713860139  0.767877576666
  0.977777777778  0.171436800843  0.171443155638  0.771774560503
  0.981481481481  0.177224088015  0.177230439647  0.775895368470
  0.985185185185  0.183069383073  0.183075732632  0.780243957260
  0.988888888889  0.188972712716  0.188979061307  0.784824430453
  0.992592592593  0.194934110049  0.194940458800  0.789641020747
  0.996296296296  0.200953614735  0.200959964788  0.794698068920
  1.000000000000  0.207031273120  0.207018571958  0.800000000101
