radius      S_expected         S_actual            Error 
  0.100000000000  0.000000000000  0.000000000000  1.952296554253
  0.101757812500  0.001023750649  0.001023763220  1.951729500162
  0.103515625000  0.002018524477  0.002018548424  1.951162701146
  0.105273437500  0.002985305902  0.002985340138  1.950596403319
  0.107031250000  0.003925027672  0.003925071208  1.950030851309
  0.108789062500  0.004838574479  0.004838626413  1.949466287521
  0.110546875000  0.005726786255  0.005726845769  1.948902951411
  0.112304687500  0.006590461203  0.006590527549  1.948341078782
  0.114062500000  0.007430358569  0.007430431064  1.947780901108
  0.115820312500  0.008247201186  0.008247279207  1.947222644874
  0.117578125000  0.009041677824  0.009041760801  1.946666530956
  0.119335937500  0.009814445346  0.009814532759  1.946112774035
  0.121093750000  0.010566130701  0.010566222073  1.945561582044
  0.122851562500  0.011297332760  0.011297427655  1.945013155660
  0.124609375000  0.012008624017  0.012008722037  1.944467687833
  0.126367187500  0.012700552166  0.012700652943  1.943925363369
  0.128125000000  0.013373641554  0.013373744754  1.943386358550
  0.129882812500  0.014028394537  0.014028499852  1.942850840803
  0.131640625000  0.014665292735  0.014665399882  1.942318968424
  0.133398437500  0.015284798201  0.015284906922  1.941790890337
  0.135156250000  0.015887354508  0.015887464566  1.941266745914
  0.136914062500  0.016473387760  0.016473498937  1.940746664834
  0.138671875000  0.017043307539  0.017043419636  1.940230766989
  0.140429687500  0.017597507787  0.017597620619  1.939719162440
  0.142187500000  0.018136367622  0.018136481022  1.939211951408
  0.143945312500  0.018660252120  0.018660365933  1.938709224319
  0.145703125000  0.019169513025  0.019169627110  1.938211061874
  0.147460937500  0.019664489430  0.019664603656  1.937717535165
  0.149218750000  0.020145508406  0.020145622655  1.937228705830
  0.150976562500  0.020612885600  0.020612999762  1.936744626226
  0.152734375000  0.021066925788  0.021067039764  1.936265339650
  0.154492187500  0.021507923401  0.021508037099  1.935790880567
  0.156250000000  0.021936163019  0.021936276356  1.935321274880
  0.158007812500  0.022351919832  0.022352032730  1.934856540213
  0.159765625000  0.022755460076  0.022755572466  1.934396686209
  0.161523437500  0.023147041447  0.023147153266  1.933941714853
  0.163281250000  0.023526913489  0.023527024679  1.933491620800
  0.165039062500  0.023895317957  0.023895428465  1.933046391721
  0.166796875000  0.024252489166  0.024252598944  1.932606008649
  0.168554687500  0.024598654317  0.024598763321  1.932170446337
  0.170312500000  0.024934033804  0.024934141995  1.931739673621
  0.172070312500  0.025258841509  0.025258948851  1.931313653776
  0.173828125000  0.025573285076  0.025573391538  1.930892344878
  0.175585937500  0.025877566176  0.025877671729  1.930475700168
  0.177343750000  0.026171880753  0.026171985371  1.930063668397
  0.179101562500  0.026456419260  0.026456522921  1.929656194187
  0.180859375000  0.026731366885  0.026731469567  1.929253218364
  0.182617187500  0.026996903758  0.026997005445  1.928854678297
  0.184375000000  0.027253205159  0.027253305834  1.928460508224
  0.186132812500  0.027500441703  0.027500541353  1.928070639570
  0.187890625000  0.027738779527  0.027738878141  1.927685001246
  0.189648437500  0.027968380461  0.027968478028  1.927303519950
  0.191406250000  0.028189402194  0.028189498706  1.926926120447
  0.193164062500  0.028401998429  0.028402093880  1.926552725838
  0.194921875000  0.028606319035  0.028606413420  1.926183257821
  0.196679687500  0.028802510189  0.028802603502  1.925817636932
  0.198437500000  0.028990714509  0.028990806748  1.925455782782
  0.200195312500  0.029171071188  0.029171162352  1.925097614274
  0.201953125000  0.029343716115  0.029343806202  1.924743049812
  0.203710937500  0.029508781994  0.029508871005  1.924392007491
  0.205468750000  0.029666398456  0.029666486393  1.924044405285
  0.207226562500  0.029816692170  0.029816779033  1.923700161214
  0.208984375000  0.029959786940  0.029959872732  1.923359193500
  0.210742187500  0.030095803809  0.030095888534  1.923021420718
  0.212500000000  0.030224861152  0.030224944813  1.922686761925
  0.214257812500  0.030347074764  0.030347157367  1.922355136791
  0.216015625000  0.030462557951  0.030462639499  1.922026465706
  0.217773437500  0.030571421605  0.030571502104  1.921700669891
  0.219531250000  0.030673774292  0.030673853749  1.921377671484
  0.221289062500  0.030769722324  0.030769800744  1.921057393631
  0.223046875000  0.030859369829  0.030859447220  1.920739760560
  0.224804687500  0.030942818826  0.030942895194  1.920424697649
  0.226562500000  0.031020169290  0.031020244643  1.920112131484
  0.228320312500  0.031091519215  0.031091593560  1.919801989917
  0.230078125000  0.031156964677  0.031157038022  1.919494202104
  0.231835937500  0.031216599893  0.031216672246  1.919188698550
  0.233593750000  0.031270517278  0.031270588647  1.918885411137
  0.235351562500  0.031318807502  0.031318877896  1.918584273157
  0.237109375000  0.031361559536  0.031361628964  1.918285219328
  0.238867187500  0.031398860712  0.031398929182  1.917988185813
  0.240625000000  0.031430796764  0.031430864284  1.917693110231
  0.242382812500  0.031457451876  0.031457518456  1.917399931666
  0.244140625000  0.031478908732  0.031478974381  1.917108590672
  0.245898437500  0.031495248553  0.031495313280  1.916819029268
  0.247656250000  0.031506551144  0.031506614958  1.916531190940
  0.249414062500  0.031512894929  0.031512957840  1.916245020634
  0.251171875000  0.031514356995  0.031514419012  1.915960464743
  0.252929687500  0.031511013125  0.031511074257  1.915677471101
  0.254687500000  0.031502937837  0.031502998094  1.915395988965
  0.256445312500  0.031490204418  0.031490263808  1.915115969002
  0.258203125000  0.031472884954  0.031472943488  1.914837363269
  0.259960937500  0.031451050368  0.031451108055  1.914560125196
  0.261718750000  0.031424770448  0.031424827296  1.914284209563
  0.263476562500  0.031394113875  0.031394169895  1.914009572482
  0.265234375000  0.031359148256  0.031359203457  1.913736171368
  0.266992187500  0.031319940151  0.031319994541  1.913463964921
  0.268750000000  0.031276555097  0.031276608687  1.913192913097
  0.270507812500  0.031229057637  0.031229110436  1.912922977087
  0.272265625000  0.031177511347  0.031177563363  1.912654119286
  0.274023437500  0.031121978853  0.031122030096  1.912386303270
  0.275781250000  0.031062521865  0.031062572343  1.912119493769
  0.277539062500  0.030999201189  0.030999250912  1.911853656639
  0.279296875000  0.030932076757  0.030932125734  1.911588758838
  0.281054687500  0.030861207646  0.030861255886  1.911324768393
  0.282812500000  0.030786652095  0.030786699607  1.911061654380
  0.284570312500  0.030708467531  0.030708514323  1.910799386891
  0.286328125000  0.030626710584  0.030626756665  1.910537937012
  0.288085937500  0.030541437106  0.030541482485  1.910277276793
  0.289843750000  0.030452702192  0.030452746877  1.910017379223
  0.291601562500  0.030360560192  0.030360604192  1.909758218204
  0.293359375000  0.030265064735  0.030265108058  1.909499768525
  0.295117187500  0.030166268739  0.030166311394  1.909242005836
  0.296875000000  0.030064224431  0.030064266426  1.908984906623
  0.298632812500  0.029958983361  0.029959024703  1.908728448185
  0.300390625000  0.029850596415  0.029850637114  1.908472608607
  0.302148437500  0.029739113834  0.029739153897  1.908217366738
  0.303906250000  0.029624585223  0.029624624658  1.907962702169
  0.305664062500  0.029507059568  0.029507098384  1.907708595205
  0.307421875000  0.029386585249  0.029386623453  1.907455026850
  0.309179687500  0.029263210051  0.029263247650  1.907201978778
  0.310937500000  0.029136981177  0.029137018179  1.906949433317
  0.312695312500  0.029007945260  0.029007981673  1.906697373424
  0.314453125000  0.028876148376  0.028876184207  1.906445782669
  0.316210937500  0.028741636054  0.028741671311  1.906194645210
  0.317968750000  0.028604453288  0.028604487979  1.905943945778
  0.319726562500  0.028464644547  0.028464678677  1.905693669657
  0.321484375000  0.028322253783  0.028322287362  1.905443802663
  0.323242187500  0.028177324448  0.028177357481  1.905194331130
  0.325000000000  0.028029899495  0.028029931990  1.904945241891
  0.326757812500  0.027880021395  0.027880053358  1.904696522260
  0.328515625000  0.027727732142  0.027727763580  1.904448160017
  0.330273437500  0.027573073262  0.027573104183  1.904200143393
  0.332031250000  0.027416085825  0.027416116235  1.903952461051
  0.333789062500  0.027256810451  0.027256840356  1.903705102077
  0.335546875000  0.027095287316  0.027095316723  1.903458055957
  0.337304687500  0.026931556167  0.026931585082  1.903211312571
  0.339062500000  0.026765656322  0.026765684752  1.902964862176
  0.340820312500  0.026597626683  0.026597654635  1.902718695393
  0.342578125000  0.026427505742  0.026427533221  1.902472803192
  0.344335937500  0.026255331586  0.026255358599  1.902227176884
  0.346093750000  0.026081141908  0.026081168460  1.901981808105
  0.347851562500  0.025904974009  0.025905000108  1.901736688807
  0.349609375000  0.025726864811  0.025726890461  1.901491811247
  0.351367187500  0.025546850856  0.025546876064  1.901247167972
  0.353125000000  0.025364968320  0.025364993091  1.901002751813
  0.354882812500  0.025181253013  0.025181277353  1.900758555875
  0.356640625000  0.024995740387  0.024995764302  1.900514573523
  0.358398437500  0.024808465545  0.024808489040  1.900270798375
  0.360156250000  0.024619463240  0.024619486322  1.900027224295
  0.361914062500  0.024428767890  0.024428790562  1.899783845380
  0.363671875000  0.024236413572  0.024236435842  1.899540655954
  0.365429687500  0.024042434039  0.024042455910  1.899297650559
  0.367187500000  0.023846862714  0.023846884193  1.899054823949
  0.368945312500  0.023649732706  0.023649753798  1.898812171077
  0.370703125000  0.023451076806  0.023451097515  1.898569687093
  0.372460937500  0.023250927496  0.023250947828  1.898327367336
  0.374218750000  0.023049316954  0.023049336914  1.898085207324
  0.375976562500  0.022846277057  0.022846296650  1.897843202751
  0.377734375000  0.022641839387  0.022641858617  1.897601349477
  0.379492187500  0.022436035233  0.022436054106  1.897359643524
  0.381250000000  0.022228895599  0.022228914119  1.897118081071
  0.383007812500  0.022020451204  0.022020469376  1.896876658447
  0.384765625000  0.021810732490  0.021810750318  1.896635372122
  0.386523437500  0.021599769623  0.021599787113  1.896394218710
  0.388281250000  0.021387592499  0.021387609654  1.896153194954
  0.390039062500  0.021174230746  0.021174247571  1.895912297728
  0.391796875000  0.020959713730  0.020959730230  1.895671524031
  0.393554687500  0.020744070558  0.020744086737  1.895430870978
  0.395312500000  0.020527330078  0.020527345941  1.895190335803
  0.397070312500  0.020309520890  0.020309536440  1.894949915847
  0.398828125000  0.020090671342  0.020090686584  1.894709608560
  0.400585937500  0.019870809538  0.019870824475  1.894469411492
  0.402343750000  0.019649963338  0.019649977976  1.894229322293
  0.404101562500  0.019428160366  0.019428174708  1.893989338708
  0.405859375000  0.019205428009  0.019205442059  1.893749458573
  0.407617187500  0.018981793421  0.018981807182  1.893509679810
  0.409375000000  0.018757283526  0.018757297004  1.893270000429
  0.411132812500  0.018531925024  0.018531938222  1.893030418518
  0.412890625000  0.018305744390  0.018305757312  1.892790932245
  0.414648437500  0.018078767879  0.018078780528  1.892551539853
  0.416406250000  0.017851021528  0.017851033907  1.892312239657
  0.418164062500  0.017622531158  0.017622543273  1.892073030041
  0.419921875000  0.017393322382  0.017393334234  1.891833909459
  0.421679687500  0.017163420599  0.017163432193  1.891594876425
  0.423437500000  0.016932851003  0.016932862344  1.891355929519
  0.425195312500  0.016701638587  0.016701649676  1.891117067377
  0.426953125000  0.016469808137  0.016469818979  1.890878288696
  0.428710937500  0.016237384245  0.016237394843  1.890639592226
  0.430468750000  0.016004391305  0.016004401661  1.890400976770
  0.432226562500  0.015770853515  0.015770863634  1.890162441182
  0.433984375000  0.015536794884  0.015536804769  1.889923984366
  0.435742187500  0.015302239233  0.015302248886  1.889685605274
  0.437500000000  0.015067210192  0.015067219617  1.889447302900
  0.439257812500  0.014831731209  0.014831740410  1.889209076284
  0.441015625000  0.014595825552  0.014595834532  1.888970924509
  0.442773437500  0.014359516305  0.014359525066  1.888732846695
  0.444531250000  0.014122826377  0.014122834923  1.888494842004
  0.446289062500  0.013885778501  0.013885786834  1.888256909634
  0.448046875000  0.013648395235  0.013648403359  1.888019048817
  0.449804687500  0.013410698968  0.013410706885  1.887781258823
  0.451562500000  0.013172711918  0.013172719632  1.887543538951
  0.453320312500  0.012934456138  0.012934463650  1.887305888536
  0.455078125000  0.012695953513  0.012695960827  1.887068306941
  0.456835937500  0.012457225767  0.012457232886  1.886830793558
  0.458593750000  0.012218294463  0.012218301390  1.886593347808
  0.460351562500  0.011979181003  0.011979187741  1.886355969140
  0.462109375000  0.011739906634  0.011739913185  1.886118657028
  0.463867187500  0.011500492447  0.011500498813  1.885881410969
  0.465625000000  0.011260959379  0.011260965563  1.885644230489
  0.467382812500  0.011021328214  0.011021334220  1.885407115131
  0.469140625000  0.010781619590  0.010781625419  1.885170064465
  0.470898437500  0.010541853995  0.010541859649  1.884933078080
  0.472656250000  0.010302051769  0.010302057252  1.884696155585
  0.474414062500  0.010062233110  0.010062238424  1.884459296609
  0.476171875000  0.009822418074  0.009822423221  1.884222500801
  0.477929687500  0.009582626573  0.009582631556  1.883985767826
  0.479687500000  0.009342878383  0.009342883204  1.883749097366
  0.481445312500  0.009103193140  0.009103197802  1.883512489123
  0.483203125000  0.008863590347  0.008863594851  1.883275942810
  0.484960937500  0.008624089369  0.008624093718  1.883039458158
  0.486718750000  0.008384709441  0.008384713638  1.882803034913
  0.488476562500  0.008145469667  0.008145473713  1.882566672833
  0.490234375000  0.007906389020  0.007906392918  1.882330371689
  0.491992187500  0.007667486347  0.007667490099  1.882094131268
  0.493750000000  0.007428780368  0.007428783976  1.881857951365
  0.495507812500  0.007190289677  0.007190293144  1.881621831789
  0.497265625000  0.006952032748  0.006952036075  1.881385772360
  0.499023437500  0.006714027930  0.006714031119  1.881149772908
  0.500781250000  0.006476293452  0.006476296506  1.880913833273
  0.502539062500  0.006238847428  0.006238850348  1.880677953305
  0.504296875000  0.006001707850  0.006001710638  1.880442132863
  0.506054687500  0.005764892597  0.005764895256  1.880206371813
  0.507812500000  0.005528419432  0.005528421963  1.879970670033
  0.509570312500  0.005292306006  0.005292308412  1.879735027406
  0.511328125000  0.005056569859  0.005056572141  1.879499443822
  0.513085937500  0.004821228419  0.004821230579  1.879263919181
  0.514843750000  0.004586299006  0.004586301047  1.879028453386
  0.516601562500  0.004351798833  0.004351800755  1.878793046349
  0.518359375000  0.004117745005  0.004117746811  1.878557697986
  0.520117187500  0.003884154524  0.003884156216  1.878322408221
  0.521875000000  0.003651044288  0.003651045866  1.878087176981
  0.523632812500  0.003418431091  0.003418432559  1.877852004197
  0.525390625000  0.003186331629  0.003186332987  1.877616889809
  0.527148437500  0.002954762495  0.002954763746  1.877381833755
  0.528906250000  0.002723740186  0.002723741331  1.877146835982
  0.530664062500  0.002493281100  0.002493282141  1.876911896439
  0.532421875000  0.002263401539  0.002263402477  1.876677015077
  0.534179687500  0.002034117711  0.002034118549  1.876442191850
  0.535937500000  0.001805445731  0.001805446469  1.876207426718
  0.537695312500  0.001577401618  0.001577402258  1.875972719638
  0.539453125000  0.001350001303  0.001350001847  1.875738070574
  0.541210937500  0.001123260625  0.001123261075  1.875503479489
  0.542968750000  0.000897195335  0.000897195692  1.875268946348
  0.544726562500  0.000671821095  0.000671821361  1.875034471118
  0.546484375000  0.000447153480  0.000447153656  1.874800053766
  0.548242187500  0.000223207980  0.000223208067  1.874565694261
  0.550000000000  0.000000000000  0.000000000000  1.874331392570
  0.551757812500 -0.000222455140 -0.000222455226  1.874097148662
  0.553515625000 -0.000444142202 -0.000444142371  1.873862962506
  0.555273437500 -0.000665046028 -0.000665046280  1.873628834069
  0.557031250000 -0.000885151543 -0.000885151877  1.873394763319
  0.558789062500 -0.001104443751 -0.001104444165  1.873160750222
  0.560546875000 -0.001322907735 -0.001322908227  1.872926794744
  0.562304687500 -0.001540528654 -0.001540529224  1.872692896847
  0.564062500000 -0.001757291746 -0.001757292392  1.872459056493
  0.565820312500 -0.001973182324 -0.001973183044  1.872225273642
  0.567578125000 -0.002188185775 -0.002188186568  1.871991548252
  0.569335937500 -0.002402287561 -0.002402288426  1.871757880275
  0.571093750000 -0.002615473218 -0.002615474154  1.871524269665
  0.572851562500 -0.002827728352 -0.002827729357  1.871290716369
  0.574609375000 -0.003039038641 -0.003039039715  1.871057220331
  0.576367187500 -0.003249389836 -0.003249390976  1.870823781494
  0.578125000000 -0.003458767755 -0.003458768961  1.870590399792
  0.579882812500 -0.003667158284 -0.003667159555  1.870357075159
  0.581640625000 -0.003874547381 -0.003874548715  1.870123807521
  0.583398437500 -0.004080921068 -0.004080922464  1.869890596801
  0.585156250000 -0.004286265434 -0.004286266891  1.869657442915
  0.586914062500 -0.004490566634 -0.004490568152  1.869424345774
  0.588671875000 -0.004693810890 -0.004693812465  1.869191305282
  0.590429687500 -0.004895984483 -0.004895986117  1.868958321337
  0.592187500000 -0.005097073764 -0.005097075454  1.868725393830
  0.593945312500 -0.005297065142 -0.005297066887  1.868492522644
  0.595703125000 -0.005495945090 -0.005495946889  1.868259707656
  0.597460937500 -0.005693700142 -0.005693701995  1.868026948733
  0.599218750000 -0.005890316893 -0.005890318798  1.867794245733
  0.600976562500 -0.006085781999 -0.006085783955  1.867561598507
  0.602734375000 -0.006280082173 -0.006280084179  1.867329006896
  0.604492187500 -0.006473204189 -0.006473206245  1.867096470730
  0.606250000000 -0.006665134880 -0.006665136984  1.866863989829
  0.608007812500 -0.006855861134 -0.006855863285  1.866631564003
  0.609765625000 -0.007045369898 -0.007045372095  1.866399193049
  0.611523437500 -0.007233648175 -0.007233650417  1.866166876754
  0.613281250000 -0.007420683024 -0.007420685310  1.865934614890
  0.615039062500 -0.007606461560 -0.007606463889  1.865702407219
  0.616796875000 -0.007790970952 -0.007790973323  1.865470253487
  0.618554687500 -0.007974198423 -0.007974200836  1.865238153427
  0.620312500000 -0.008156131253 -0.008156133706  1.865006106757
  0.622070312500 -0.008336756772 -0.008336759264  1.864774113179
  0.623828125000 -0.008516062364 -0.008516064895  1.864542172378
  0.625585937500 -0.008694035467 -0.008694038036  1.864310284025
  0.627343750000 -0.008870663570 -0.008870666176  1.864078447771
  0.629101562500 -0.009045934213 -0.009045936855  1.863846663249
  0.630859375000 -0.009219834990 -0.009219837666  1.863614930074
  0.632617187500 -0.009392353542 -0.009392356253  1.863383247840
  0.634375000000 -0.009563477564 -0.009563480308  1.863151616121
  0.636132812500 -0.009733194799 -0.009733197576  1.862920034468
