radius      S_expected         S_actual            Error 
  0.100000000000  0.000000000000  0.000000000000  1.351521737666
  0.100878906250  0.000515561077  0.000515562687  1.355709157178
  0.101757812500  0.001023750649  0.001023753791  1.359872639836
  0.102636718750  0.001524696884  0.001524701484  1.363992320631
  0.103515625000  0.002018524477  0.002018530463  1.368049146356
  0.104394531250  0.002505354776  0.002505362080  1.372025209532
  0.105273437500  0.002985305902  0.002985314460  1.375904038588
  0.106152343750  0.003458492864  0.003458502614  1.379670835145
  0.107031250000  0.003925027672  0.003925038555  1.383312652499
  0.107910156250  0.004385019438  0.004385031397  1.386818512767
  0.108789062500  0.004838574479  0.004838587461  1.390179463405
  0.109667968750  0.005285796413  0.005285810368  1.393388576666
  0.110546875000  0.005726786255  0.005726801132  1.396440897875
  0.111425781250  0.006161642498  0.006161658251  1.399333350056
  0.112304687500  0.006590461203  0.006590477789  1.402064603434
  0.113183593750  0.007013336082  0.007013353456  1.404634918685
  0.114062500000  0.007430358569  0.007430376691  1.407045972628
  0.114941406250  0.007841617900  0.007841636732  1.409300674377
  0.115820312500  0.008247201186  0.008247220689  1.411402979074
  0.116699218750  0.008647193474  0.008647213615  1.413357705160
  0.117578125000  0.009041677824  0.009041698567  1.415170359942
  0.118457031250  0.009430735361  0.009430756674  1.416846977019
  0.119335937500  0.009814445346  0.009814467198  1.418393968013
  0.120214843750  0.010192885228  0.010192907588  1.419817990075
  0.121093750000  0.010566130701  0.010566153542  1.421125829769
  0.121972656250  0.010934255762  0.010934279057  1.422324303294
  0.122851562500  0.011297332760  0.011297356482  1.423420172461
  0.123730468750  0.011655432444  0.011655456569  1.424420075468
  0.124609375000  0.012008624017  0.012008648520  1.425330471271
  0.125488281250  0.012356975178  0.012357000037  1.426157596189
  0.126367187500  0.012700552166  0.012700577359  1.426907431339
  0.127246093750  0.013039419808  0.013039445313  1.427585679475
  0.128125000000  0.013373641554  0.013373667353  1.428197749884
  0.129003906250  0.013703279523  0.013703305595  1.428748750060
  0.129882812500  0.014028394537  0.014028420864  1.429243482986
  0.130761718750  0.014349046160  0.014349072725  1.429686448979
  0.131640625000  0.014665292735  0.014665319520  1.430081851169
  0.132519531250  0.014977191415  0.014977218405  1.430433603802
  0.133398437500  0.015284798201  0.015284825380  1.430745342669
  0.134277343750  0.015588167970  0.015588195323  1.431020437083
  0.135156250000  0.015887354508  0.015887382021  1.431262002894
  0.136035156250  0.016182410540  0.016182438199  1.431472916150
  0.136914062500  0.016473387760  0.016473415553  1.431655827071
  0.137792968750  0.016760336856  0.016760364769  1.431813174053
  0.138671875000  0.017043307539  0.017043335562  1.431947197526
  0.139550781250  0.017322348571  0.017322376692  1.432059953464
  0.140429687500  0.017597507787  0.017597535993  1.432153326467
  0.141308593750  0.017868832118  0.017868860401  1.432229042292
  0.142187500000  0.018136367622  0.018136395971  1.432288679801
  0.143066406250  0.018400159500  0.018400187905  1.432333682267
  0.143945312500  0.018660252120  0.018660280572  1.432365368031
  0.144824218750  0.018916689040  0.018916717530  1.432384940506
  0.145703125000  0.019169513025  0.019169541545  1.432393497520
  0.146582031250  0.019418766074  0.019418794615  1.432392040025
  0.147460937500  0.019664489430  0.019664517985  1.432381480190
  0.148339843750  0.019906723607  0.019906752169  1.432362648895
  0.149218750000  0.020145508406  0.020145536967  1.432336302668
  0.150097656250  0.020380882929  0.020380911482  1.432303130079
  0.150976562500  0.020612885600  0.020612914139  1.432263757633
  0.151855468750  0.020841554181  0.020841582700  1.432218755192
  0.152734375000  0.021066925788  0.021066954280  1.432168640950
  0.153613281250  0.021289036905  0.021289065365  1.432113886004
  0.154492187500  0.021507923401  0.021507951825  1.432054918530
  0.155371093750  0.021723620546  0.021723648926  1.431992127620
  0.156250000000  0.021936163019  0.021936191352  1.431925866781
  0.157128906250  0.022145584932  0.022145613212  1.431856457133
  0.158007812500  0.022351919832  0.022351948055  1.431784190337
  0.158886718750  0.022555200723  0.022555228885  1.431709331253
  0.159765625000  0.022755460076  0.022755488172  1.431632120380
  0.160644531250  0.022952729837  0.022952757864  1.431552776069
  0.161523437500  0.023147041447  0.023147069401  1.431471496540
  0.162402343750  0.023338425846  0.023338453723  1.431388461724
  0.163281250000  0.023526913489  0.023526941285  1.431303834935
  0.164160156250  0.023712534354  0.023712562067  1.431217764395
  0.165039062500  0.023895317957  0.023895345583  1.431130384619
  0.165917968750  0.024075293356  0.024075320892  1.431041817671
  0.166796875000  0.024252489166  0.024252516610  1.430952174318
  0.167675781250  0.024426933568  0.024426960916  1.430861555061
  0.168554687500  0.024598654317  0.024598681567  1.430770051093
  0.169433593750  0.024767678752  0.024767705901  1.430677745146
  0.170312500000  0.024934033804  0.024934060851  1.430584712282
  0.171191406250  0.025097746008  0.025097772950  1.430491020600
  0.172070312500  0.025258841509  0.025258868344  1.430396731876
  0.172949218750  0.025417346068  0.025417372794  1.430301902153
  0.173828125000  0.025573285076  0.025573311691  1.430206582270
  0.174707031250  0.025726683556  0.025726710058  1.430110818345
  0.175585937500  0.025877566176  0.025877592563  1.430014652211
  0.176464843750  0.026025957250  0.026025983522  1.429918121815
  0.177343750000  0.026171880753  0.026171906906  1.429821261580
  0.178222656250  0.026315360320  0.026315386355  1.429724102726
  0.179101562500  0.026456419260  0.026456445175  1.429626673575
  0.179980468750  0.026595080559  0.026595106351  1.429528999815
  0.180859375000  0.026731366885  0.026731392555  1.429431104746
  0.181738281250  0.026865300599  0.026865326145  1.429333009503
  0.182617187500  0.026996903758  0.026996929179  1.429234733256
  0.183496093750  0.027126198122  0.027126223417  1.429136293390
  0.184375000000  0.027253205159  0.027253230327  1.429037705678
  0.185253906250  0.027377946051  0.027377971092  1.428938984424
  0.186132812500  0.027500441703  0.027500466615  1.428840142601
  0.187011718750  0.027620712741  0.027620737524  1.428741191978
  0.187890625000  0.027738779527  0.027738804179  1.428642143228
  0.188769531250  0.027854662154  0.027854686677  1.428543006031
  0.189648437500  0.027968380461  0.027968404852  1.428443789170
  0.190527343750  0.028079954029  0.028079978289  1.428344500608
  0.191406250000  0.028189402194  0.028189426321  1.428245147568
  0.192285156250  0.028296744044  0.028296768039  1.428145736601
  0.193164062500  0.028401998429  0.028402022291  1.428046273650
  0.194042968750  0.028505183965  0.028505207694  1.427946764104
  0.194921875000  0.028606319035  0.028606342631  1.427847212850
  0.195800781250  0.028705421798  0.028705445260  1.427747624321
  0.196679687500  0.028802510189  0.028802533516  1.427648002535
  0.197558593750  0.028897601925  0.028897625118  1.427548351140
  0.198437500000  0.028990714509  0.028990737568  1.427448673438
  0.199316406250  0.029081865234  0.029081888159  1.427348972427
  0.200195312500  0.029171071188  0.029171093978  1.427249250824
  0.201074218750  0.029258349253  0.029258371909  1.427149511090
  0.201953125000  0.029343716115  0.029343738636  1.427049755458
  0.202832031250  0.029427188262  0.029427210649  1.426949985949
  0.203710937500  0.029508781994  0.029508804246  1.426850204394
  0.204589843750  0.029588513417  0.029588535535  1.426750412452
  0.205468750000  0.029666398456  0.029666420440  1.426650611624
  0.206347656250  0.029742452853  0.029742474702  1.426550803266
  0.207226562500  0.029816692170  0.029816713885  1.426450988607
  0.208105468750  0.029889131794  0.029889153375  1.426351168753
  0.208984375000  0.029959786940  0.029959808387  1.426251344705
  0.209863281250  0.030028672652  0.030028693966  1.426151517364
  0.210742187500  0.030095803809  0.030095824990  1.426051687540
  0.211621093750  0.030161195125  0.030161216172  1.425951855959
  0.212500000000  0.030224861152  0.030224882067  1.425852023273
  0.213378906250  0.030286816286  0.030286837068  1.425752190063
  0.214257812500  0.030347074764  0.030347095415  1.425652356845
  0.215136718750  0.030405650674  0.030405671193  1.425552524075
  0.216015625000  0.030462557951  0.030462578337  1.425452692153
  0.216894531250  0.030517810380  0.030517830636  1.425352861429
  0.217773437500  0.030571421605  0.030571441729  1.425253032201
  0.218652343750  0.030623405123  0.030623425117  1.425153204724
  0.219531250000  0.030673774292  0.030673794156  1.425053379206
  0.220410156250  0.030722542332  0.030722562066  1.424953555816
  0.221289062500  0.030769722324  0.030769741928  1.424853734680
  0.222167968750  0.030815327217  0.030815346693  1.424753915886
  0.223046875000  0.030859369829  0.030859389176  1.424654099482
  0.223925781250  0.030901862846  0.030901882065  1.424554285479
  0.224804687500  0.030942818826  0.030942837918  1.424454473849
  0.225683593750  0.030982250205  0.030982269169  1.424354664523
  0.226562500000  0.031020169290  0.031020188128  1.424254857395
  0.227441406250  0.031056588271  0.031056606983  1.424155052316
  0.228320312500  0.031091519215  0.031091537801  1.424055249097
  0.229199218750  0.031124974072  0.031124992533  1.423955447501
  0.230078125000  0.031156964677  0.031156983013  1.423855647247
  0.230957031250  0.031187502748  0.031187520959  1.423755848004
  0.231835937500  0.031216599893  0.031216617981  1.423656049386
  0.232714843750  0.031244267607  0.031244285572  1.423556250953
  0.233593750000  0.031270517278  0.031270535120  1.423456452201
  0.234472656250  0.031295360185  0.031295377905  1.423356652561
  0.235351562500  0.031318807502  0.031318825100  1.423256851394
  0.236230468750  0.031340870297  0.031340887774  1.423157047980
  0.237109375000  0.031361559536  0.031361576893  1.423057241516
  0.237988281250  0.031380886087  0.031380903323  1.422957431105
  0.238867187500  0.031398860712  0.031398877829  1.422857615750
  0.239746093750  0.031415494081  0.031415511079  1.422757794343
  0.240625000000  0.031430796764  0.031430813643  1.422657965651
  0.241503906250  0.031444779235  0.031444795997  1.422558128311
  0.242382812500  0.031457451876  0.031457468521  1.422458280811
  0.243261718750  0.031468824976  0.031468841504  1.422358421478
  0.244140625000  0.031478908732  0.031478925144  1.422258548462
  0.245019531250  0.031487713251  0.031487729548  1.422158659717
  0.245898437500  0.031495248553  0.031495264735  1.422058752983
  0.246777343750  0.031501524569  0.031501540636  1.421958825763
  0.247656250000  0.031506551144  0.031506567097  1.421858875299
  0.248535156250  0.031510338038  0.031510353878  1.421758898547
  0.249414062500  0.031512894929  0.031512910656  1.421658892147
  0.250292968750  0.031514231410  0.031514247026  1.421558852390
  0.251171875000  0.031514356995  0.031514372499  1.421458775185
  0.252050781250  0.031513281115  0.031513296508  1.421358656018
  0.252929687500  0.031511013125  0.031511028408  1.421258489911
  0.253808593750  0.031507562300  0.031507577473  1.421158271371
  0.254687500000  0.031502937837  0.031502952901  1.421057994342
  0.255566406250  0.031497148861  0.031497163816  1.420957652145
  0.256445312500  0.031490204418  0.031490219265  1.420857237417
  0.257324218750  0.031482113482  0.031482128222  1.420756742037
  0.258203125000  0.031472884954  0.031472899587  1.420656157056
  0.259082031250  0.031462527663  0.031462542191  1.420555472604
  0.259960937500  0.031451050368  0.031451064790  1.420454677804
  0.260839843750  0.031438461757  0.031438476073  1.420353760667
  0.261718750000  0.031424770448  0.031424784660  1.420252707979
  0.262597656250  0.031409984992  0.031409999100  1.420151505177
  0.263476562500  0.031394113875  0.031394127879  1.420050136215
  0.264355468750  0.031377165512  0.031377179414  1.419948583409
  0.265234375000  0.031359148256  0.031359162056  1.419846827280
  0.266113281250  0.031340070394  0.031340084093  1.419744846364
  0.266992187500  0.031319940151  0.031319953748  1.419642617021
  0.267871093750  0.031298765685  0.031298779182  1.419540113212
  0.268750000000  0.031276555097  0.031276568494  1.419437306261
  0.269628906250  0.031253316422  0.031253329720  1.419334164592
  0.270507812500  0.031229057637  0.031229070837  1.419230653442
  0.271386718750  0.031203786660  0.031203799761  1.419126734543
  0.272265625000  0.031177511347  0.031177524351  1.419022365778
  0.273144531250  0.031150239497  0.031150252404  1.418917500803
  0.274023437500  0.031121978853  0.031121991664  1.418812088631
  0.274902343750  0.031092737100  0.031092749814  1.418706073184
  0.275781250000  0.031062521865  0.031062534484  1.418599392800
  0.276660156250  0.031031340722  0.031031353246  1.418491979692
  0.277539062500  0.030999201189  0.030999213620  1.418383759369
  0.278417968750  0.030966110730  0.030966123068  1.418274649994
  0.279296875000  0.030932076757  0.030932089001  1.418164561705
  0.280175781250  0.030897106627  0.030897118779  1.418053395856
  0.281054687500  0.030861207646  0.030861219706  1.417941044219
  0.281933593750  0.030824387067  0.030824399036  1.417827388112
  0.282812500000  0.030786652095  0.030786663973  1.417712297458
  0.283691406250  0.030748009882  0.030748021670  1.417595629787
  0.284570312500  0.030708467531  0.030708479229  1.417477229157
  0.285449218750  0.030668032097  0.030668043705  1.417356925013
  0.286328125000  0.030626710584  0.030626722104  1.417234530978
  0.287207031250  0.030584509951  0.030584521383  1.417109843569
  0.288085937500  0.030541437106  0.030541448451  1.416982640861
  0.288964843750  0.030497498914  0.030497510172  1.416852681090
  0.289843750000  0.030452702192  0.030452713363  1.416719701215
  0.290722656250  0.030407053709  0.030407064794  1.416583415442
  0.291601562500  0.030360560192  0.030360571192  1.416443513745
  0.292480468750  0.030313228322  0.030313239237  1.416299660385
  0.293359375000  0.030265064735  0.030265075565  1.416151492481
  0.294238281250  0.030216076024  0.030216086771  1.415998618643
  0.295117187500  0.030166268739  0.030166279403  1.415840617740
  0.295996093750  0.030115649387  0.030115659967  1.415677037835
  0.296875000000  0.030064224431  0.030064234930  1.415507395360
  0.297753906250  0.030012000295  0.030012010712  1.415331174613
  0.298632812500  0.029958983361  0.029958993696  1.415147827648
  0.299511718750  0.029905179967  0.029905190222  1.414956774689
  0.300390625000  0.029850596415  0.029850606589  1.414757405143
  0.301269531250  0.029795238964  0.029795249058  1.414549079373
  0.302148437500  0.029739113834  0.029739123849  1.414331131353
  0.303027343750  0.029682227206  0.029682237143  1.414102872346
  0.303906250000  0.029624585223  0.029624595081  1.413863595773
  0.304785156250  0.029566193988  0.029566203769  1.413612583407
  0.305664062500  0.029507059568  0.029507069272  1.413349113040
  0.306542968750  0.029447187992  0.029447197619  1.413072467759
  0.307421875000  0.029386585249  0.029386594800  1.412781946907
  0.308300781250  0.029325257297  0.029325266771  1.412476878802
  0.309179687500  0.029263210051  0.029263219451  1.412156635195
  0.310058593750  0.029200449396  0.029200458720  1.411820647406
  0.310937500000  0.029136981177  0.029136990427  1.411468423942
  0.311816406250  0.029072811206  0.029072820382  1.411099569341
  0.312695312500  0.029007945260  0.029007954363  1.410713803835
  0.313574218750  0.028942389080  0.028942398111  1.410310983297
  0.314453125000  0.028876148376  0.028876157334  1.409891118830
  0.315332031250  0.028809228820  0.028809237706  1.409454395213
  0.316210937500  0.028741636054  0.028741644868  1.409001187344
  0.317089843750  0.028673375685  0.028673384428  1.408532073744
  0.317968750000  0.028604453288  0.028604461961  1.408047846171
  0.318847656250  0.028534874405  0.028534883008  1.407549514467
  0.319726562500  0.028464644547  0.028464653079  1.407038305844
  0.320605468750  0.028393769190  0.028393777654  1.406515658021
  0.321484375000  0.028322253783  0.028322262178  1.405983205881
  0.322363281250  0.028250103741  0.028250112067  1.405442761632
  0.323242187500  0.028177324448  0.028177332706  1.404896288782
  0.324121093750  0.028103921258  0.028103929449  1.404345870641
  0.325000000000  0.028029899495  0.028029907619  1.403793674355
  0.325878906250  0.027955264453  0.027955272510  1.403241911818
  0.326757812500  0.027880021395  0.027880029386  1.402692798965
  0.327636718750  0.027804175556  0.027804183481  1.402148515111
  0.328515625000  0.027727732142  0.027727740001  1.401611163974
  0.329394531250  0.027650696328  0.027650704122  1.401082737900
  0.330273437500  0.027573073262  0.027573080992  1.400565086639
  0.331152343750  0.027494868064  0.027494875730  1.400059891673
  0.332031250000  0.027416085825  0.027416093428  1.399568646814
  0.332910156250  0.027336731609  0.027336739148  1.399092645386
  0.333789062500  0.027256810451  0.027256817927  1.398632973988
  0.334667968750  0.027176327359  0.027176334773  1.398190512497
  0.335546875000  0.027095287316  0.027095294668  1.397765939739
  0.336425781250  0.027013695276  0.027013702566  1.397359744043
  0.337304687500  0.026931556167  0.026931563396  1.396972237806
  0.338183593750  0.026848874890  0.026848882058  1.396603575124
  0.339062500000  0.026765656322  0.026765663430  1.396253771570
  0.339941406250  0.026681905312  0.026681912359  1.395922725266
  0.340820312500  0.026597626683  0.026597633671  1.395610238480
  0.341699218750  0.026512825236  0.026512832164  1.395316039113
  0.342578125000  0.026427505742  0.026427512612  1.395039801566
  0.343457031250  0.026341672951  0.026341679762  1.394781166596
  0.344335937500  0.026255331586  0.026255338339  1.394539759903
  0.345214843750  0.026168486347  0.026168493042  1.394315209307
  0.346093750000  0.026081141908  0.026081148546  1.394107160440
  0.346972656250  0.025993302920  0.025993309501  1.393915290987
  0.347851562500  0.025904974009  0.025904980534  1.393739323545
  0.348730468750  0.025816159780  0.025816166248  1.393579037223
  0.349609375000  0.025726864811  0.025726871223  1.393434278142
  0.350488281250  0.025637093659  0.025637100016  1.393304969003
  0.351367187500  0.025546850856  0.025546857158  1.393191117896
  0.352246093750  0.025456140914  0.025456147161  1.393092826552
  0.353125000000  0.025364968320  0.025364974513  1.393010298191
  0.354003906250  0.025273337539  0.025273343677  1.392943845158
  0.354882812500  0.025181253013  0.025181259098  1.392893896496
  0.355761718750  0.025088719163  0.025088725194  1.392861005595
  0.356640625000  0.024995740387  0.024995746366  1.392845858065
  0.357519531250  0.024902321063  0.024902326989  1.392849279928
  0.358398437500  0.024808465545  0.024808471418  1.392872246242
  0.359277343750  0.024714178166  0.024714183988  1.392915890230
  0.360156250000  0.024619463240  0.024619469011  1.392981512972
  0.361035156250  0.024524325058  0.024524330777  1.393070593713
  0.361914062500  0.024428767890  0.024428773558  1.393184800790
  0.362792968750  0.024332795985  0.024332801602  1.393326003184
  0.363671875000  0.024236413572  0.024236419140  1.393496282649
  0.364550781250  0.024139624861  0.024139630378  1.393697946359
  0.365429687500  0.024042434039  0.024042439506  1.393933539958
  0.366308593750  0.023944845274  0.023944850692  1.394205860863
  0.367187500000  0.023846862714  0.023846868084  1.394517971618
  0.368066406250  0.023748490489  0.023748495810  1.394873213025
