radius      S_expected         S_actual            Error 
  0.100000000000  0.207031273120  0.207031273116  0.444057466375
  0.100878906250  0.207715012433  0.207715012434  0.450099356477
  0.101757812500  0.208359089214  0.208359089213  0.456114680646
  0.102636718750  0.208964584959  0.208964584959  0.462103511805
  0.103515625000  0.209532544471  0.209532544470  0.468065923200
  0.104394531250  0.210063977405  0.210063977405  0.474001988379
  0.105273437500  0.210559859744  0.210559859744  0.479911781177
  0.106152343750  0.211021135185  0.211021135185  0.485795375683
  0.107031250000  0.211448716471  0.211448716471  0.491652846226
  0.107910156250  0.211843486651  0.211843486651  0.497484267350
  0.108789062500  0.212206300281  0.212206300280  0.503289713790
  0.109667968750  0.212537984565  0.212537984565  0.509069260450
  0.110546875000  0.212839340448  0.212839340447  0.514822982378
  0.111425781250  0.213111143645  0.213111143644  0.520550954748
  0.112304687500  0.213354145636  0.213354145635  0.526253252831
  0.113183593750  0.213569074607  0.213569074606  0.531929951973
  0.114062500000  0.213756636343  0.213756636342  0.537581127574
  0.114941406250  0.213917515093  0.213917515092  0.543206855065
  0.115820312500  0.214052374382  0.214052374381  0.548807209882
  0.116699218750  0.214161857795  0.214161857794  0.554382267445
  0.117578125000  0.214246589723  0.214246589723  0.559932103135
  0.118457031250  0.214307176077  0.214307176076  0.565456792272
  0.119335937500  0.214344204965  0.214344204964  0.570956410092
  0.120214843750  0.214358247349  0.214358247348  0.576431031725
  0.121093750000  0.214349857665  0.214349857665  0.581880732175
  0.121972656250  0.214319574421  0.214319574420  0.587305586295
  0.122851562500  0.214267920765  0.214267920764  0.592705668772
  0.123730468750  0.214195405034  0.214195405033  0.598081054100
  0.124609375000  0.214102521275  0.214102521274  0.603431816564
  0.125488281250  0.213989749748  0.213989749747  0.608758030219
  0.126367187500  0.213857557406  0.213857557405  0.614059768870
  0.127246093750  0.213706398353  0.213706398352  0.619337106056
  0.128125000000  0.213536714289  0.213536714288  0.624590115030
  0.129003906250  0.213348934931  0.213348934930  0.629818868740
  0.129882812500  0.213143478418  0.213143478417  0.635023439815
  0.130761718750  0.212920751704  0.212920751704  0.640203900546
  0.131640625000  0.212681150931  0.212681150931  0.645360322873
  0.132519531250  0.212425061787  0.212425061786  0.650492778365
  0.133398437500  0.212152859850  0.212152859850  0.655601338212
  0.134277343750  0.211864910924  0.211864910924  0.660686073204
  0.135156250000  0.211561571354  0.211561571353  0.665747053722
  0.136035156250  0.211243188331  0.211243188331  0.670784349726
  0.136914062500  0.210910100192  0.210910100191  0.675798030739
  0.137792968750  0.210562636695  0.210562636694  0.680788165838
  0.138671875000  0.210201119298  0.210201119298  0.685754823645
  0.139550781250  0.209825861421  0.209825861420  0.690698072313
  0.140429687500  0.209437168691  0.209437168691  0.695617979520
  0.141308593750  0.209035339194  0.209035339194  0.700514612458
  0.142187500000  0.208620663703  0.208620663702  0.705388037826
  0.143066406250  0.208193425903  0.208193425902  0.710238321824
  0.143945312500  0.207753902611  0.207753902611  0.715065530144
  0.144824218750  0.207302363984  0.207302363984  0.719869727965
  0.145703125000  0.206839073720  0.206839073719  0.724650979946
  0.146582031250  0.206364289249  0.206364289248  0.729409350224
  0.147460937500  0.205878261926  0.205878261925  0.734144902409
  0.148339843750  0.205381237209  0.205381237208  0.738857699580
  0.149218750000  0.204873454830  0.204873454830  0.743547804280
  0.150097656250  0.204355148970  0.204355148969  0.748215278519
  0.150976562500  0.203826548412  0.203826548412  0.752860183766
  0.151855468750  0.203287876708  0.203287876707  0.757482580953
  0.152734375000  0.202739352320  0.202739352320  0.762082530471
  0.153613281250  0.202181188773  0.202181188773  0.766660092174
  0.154492187500  0.201613594793  0.201613594793  0.771215325374
  0.155371093750  0.201036774444  0.201036774443  0.775748288845
  0.156250000000  0.200450927257  0.200450927256  0.780259040827
  0.157128906250  0.199856248361  0.199856248361  0.784747639023
  0.158007812500  0.199252928605  0.199252928604  0.789214140605
  0.158886718750  0.198641154673  0.198641154672  0.793658602214
  0.159765625000  0.198021109204  0.198021109203  0.798081079969
  0.160644531250  0.197392970899  0.197392970899  0.802481629462
  0.161523437500  0.196756914632  0.196756914632  0.806860305772
  0.162402343750  0.196113111551  0.196113111550  0.811217163460
  0.163281250000  0.195461729178  0.195461729178  0.815552256581
  0.164160156250  0.194802931512  0.194802931511  0.819865638688
  0.165039062500  0.194136879114  0.194136879114  0.824157362834
  0.165917968750  0.193463729209  0.193463729208  0.828427481580
  0.166796875000  0.192783635763  0.192783635763  0.832676047004
  0.167675781250  0.192096749579  0.192096749579  0.836903110702
  0.168554687500  0.191403218373  0.191403218372  0.841108723800
  0.169433593750  0.190703186855  0.190703186855  0.845292936955
  0.170312500000  0.189996796811  0.189996796810  0.849455800371
  0.171191406250  0.189284187173  0.189284187173  0.853597363795
  0.172070312500  0.188565494096  0.188565494096  0.857717676535
  0.172949218750  0.187840851027  0.187840851027  0.861816787460
  0.173828125000  0.187110388774  0.187110388773  0.865894745015
  0.174707031250  0.186374235572  0.186374235571  0.869951597222
  0.175585937500  0.185632517149  0.185632517148  0.873987391691
  0.176464843750  0.184885356787  0.184885356786  0.878002175631
  0.177343750000  0.184132875384  0.184132875384  0.881995995855
  0.178222656250  0.183375191514  0.183375191513  0.885968898788
  0.179101562500  0.182612421479  0.182612421479  0.889920930478
  0.179980468750  0.181844679373  0.181844679373  0.893852136604
  0.180859375000  0.181072077127  0.181072077126  0.897762562483
  0.181738281250  0.180294724568  0.180294724567  0.901652253080
  0.182617187500  0.179512729466  0.179512729465  0.905521253016
  0.183496093750  0.178726197586  0.178726197585  0.909369606578
  0.184375000000  0.177935232734  0.177935232733  0.913197357725
  0.185253906250  0.177139936803  0.177139936803  0.917004550099
  0.186132812500  0.176340409822  0.176340409822  0.920791227035
  0.187011718750  0.175536749996  0.175536749996  0.924557431564
  0.187890625000  0.174729053749  0.174729053749  0.928303206428
  0.188769531250  0.173917415768  0.173917415768  0.932028594084
  0.189648437500  0.173101929042  0.173101929042  0.935733636714
  0.190527343750  0.172282684901  0.172282684901  0.939418376236
  0.191406250000  0.171459773053  0.171459773053  0.943082854306
  0.192285156250  0.170633281625  0.170633281624  0.946727112333
  0.193164062500  0.169803297193  0.169803297193  0.950351191483
  0.194042968750  0.168969904825  0.168969904825  0.953955132688
  0.194921875000  0.168133188106  0.168133188106  0.957538976656
  0.195800781250  0.167293229180  0.167293229180  0.961102763874
  0.196679687500  0.166450108775  0.166450108774  0.964646534623
  0.197558593750  0.165603906239  0.165603906239  0.968170328978
  0.198437500000  0.164754699570  0.164754699569  0.971674186821
  0.199316406250  0.163902565443  0.163902565443  0.975158147846
  0.200195312500  0.163047579243  0.163047579243  0.978622251567
  0.201074218750  0.162189815089  0.162189815089  0.982066537325
  0.201953125000  0.161329345867  0.161329345867  0.985491044295
  0.202832031250  0.160466243250  0.160466243250  0.988895811494
  0.203710937500  0.159600577729  0.159600577729  0.992280877785
  0.204589843750  0.158732418636  0.158732418636  0.995646281886
  0.205468750000  0.157861834172  0.157861834172  0.998992062378
  0.206347656250  0.156988891425  0.156988891425  1.002318257706
  0.207226562500  0.156113656401  0.156113656400  1.005624906193
  0.208105468750  0.155236194039  0.155236194039  1.008912046037
  0.208984375000  0.154356568241  0.154356568241  1.012179715326
  0.209863281250  0.153474841887  0.153474841887  1.015427952037
  0.210742187500  0.152591076861  0.152591076861  1.018656794044
  0.211621093750  0.151705334070  0.151705334069  1.021866279127
  0.212500000000  0.150817673461  0.150817673461  1.025056444970
  0.213378906250  0.149928154048  0.149928154048  1.028227329175
  0.214257812500  0.149036833923  0.149036833923  1.031378969259
  0.215136718750  0.148143770280  0.148143770280  1.034511402665
  0.216015625000  0.147249019430  0.147249019430  1.037624666763
  0.216894531250  0.146352636822  0.146352636822  1.040718798859
  0.217773437500  0.145454677058  0.145454677058  1.043793836194
  0.218652343750  0.144555193910  0.144555193909  1.046849815953
  0.219531250000  0.143654240336  0.143654240336  1.049886775268
  0.220410156250  0.142751868499  0.142751868499  1.052904751220
  0.221289062500  0.141848129779  0.141848129779  1.055903780848
  0.222167968750  0.140943074791  0.140943074791  1.058883901148
  0.223046875000  0.140036753397  0.140036753397  1.061845149080
  0.223925781250  0.139129214726  0.139129214726  1.064787561569
  0.224804687500  0.138220507181  0.138220507181  1.067711175512
  0.225683593750  0.137310678458  0.137310678458  1.070616027778
  0.226562500000  0.136399775559  0.136399775559  1.073502155215
  0.227441406250  0.135487844803  0.135487844803  1.076369594649
  0.228320312500  0.134574931841  0.134574931841  1.079218382890
  0.229199218750  0.133661081669  0.133661081669  1.082048556734
  0.230078125000  0.132746338637  0.132746338637  1.084860152969
  0.230957031250  0.131830746465  0.131830746465  1.087653208371
  0.231835937500  0.130914348253  0.130914348253  1.090427759713
  0.232714843750  0.129997186493  0.129997186493  1.093183843765
  0.233593750000  0.129079303078  0.129079303078  1.095921497296
  0.234472656250  0.128160739318  0.128160739318  1.098640757078
  0.235351562500  0.127241535945  0.127241535945  1.101341659886
  0.236230468750  0.126321733127  0.126321733127  1.104024242504
  0.237109375000  0.125401370478  0.125401370478  1.106688541722
  0.237988281250  0.124480487066  0.124480487066  1.109334594343
  0.238867187500  0.123559121425  0.123559121425  1.111962437181
  0.239746093750  0.122637311564  0.122637311564  1.114572107066
  0.240625000000  0.121715094977  0.121715094977  1.117163640842
  0.241503906250  0.120792508648  0.120792508648  1.119737075373
  0.242382812500  0.119869589067  0.119869589067  1.122292447542
  0.243261718750  0.118946372232  0.118946372232  1.124829794251
  0.244140625000  0.118022893664  0.118022893664  1.127349152427
  0.245019531250  0.117099188407  0.117099188407  1.129850559021
  0.245898437500  0.116175291046  0.116175291046  1.132334051005
  0.246777343750  0.115251235707  0.115251235708  1.134799665383
  0.247656250000  0.114327056070  0.114327056070  1.137247439182
  0.248535156250  0.113402785373  0.113402785373  1.139677409460
  0.249414062500  0.112478456421  0.112478456421  1.142089613304
  0.250292968750  0.111554101594  0.111554101595  1.144484087830
  0.251171875000  0.110629752856  0.110629752856  1.146860870188
  0.252050781250  0.109705441755  0.109705441756  1.149219997559
  0.252929687500  0.108781199439  0.108781199439  1.151561507157
  0.253808593750  0.107857056655  0.107857056655  1.153885436230
  0.254687500000  0.106933043760  0.106933043760  1.156191822061
  0.255566406250  0.106009190727  0.106009190728  1.158480701969
  0.256445312500  0.105085527151  0.105085527151  1.160752113305
  0.257324218750  0.104162082253  0.104162082253  1.163006093462
  0.258203125000  0.103238884889  0.103238884889  1.165242679866
  0.259082031250  0.102315963554  0.102315963555  1.167461909980
  0.259960937500  0.101393346391  0.101393346391  1.169663821308
  0.260839843750  0.100471061191  0.100471061192  1.171848451389
  0.261718750000  0.099549135405  0.099549135405  1.174015837803
  0.262597656250  0.098627596143  0.098627596144  1.176166018165
  0.263476562500  0.097706470186  0.097706470186  1.178299030133
  0.264355468750  0.096785783986  0.096785783986  1.180414911403
  0.265234375000  0.095865563673  0.095865563673  1.182513699710
  0.266113281250  0.094945835061  0.094945835061  1.184595432828
  0.266992187500  0.094026623651  0.094026623651  1.186660148573
  0.267871093750  0.093107954637  0.093107954638  1.188707884797
  0.268750000000  0.092189852912  0.092189852913  1.190738679397
  0.269628906250  0.091272343070  0.091272343070  1.192752570306
  0.270507812500  0.090355449410  0.090355449411  1.194749595499
  0.271386718750  0.089439195946  0.089439195946  1.196729792990
  0.272265625000  0.088523606404  0.088523606404  1.198693200834
  0.273144531250  0.087608704232  0.087608704232  1.200639857125
  0.274023437500  0.086694512600  0.086694512600  1.202569799997
  0.274902343750  0.085781054409  0.085781054409  1.204483067624
  0.275781250000  0.084868352289  0.084868352289  1.206379698220
  0.276660156250  0.083956428608  0.083956428608  1.208259730040
  0.277539062500  0.083045305474  0.083045305474  1.210123201374
  0.278417968750  0.082135004737  0.082135004738  1.211970150555
  0.279296875000  0.081225547998  0.081225547998  1.213800615955
  0.280175781250  0.080316956604  0.080316956605  1.215614635983
  0.281054687500  0.079409251662  0.079409251663  1.217412249088
  0.281933593750  0.078502454034  0.078502454035  1.219193493756
  0.282812500000  0.077596584345  0.077596584346  1.220958408514
  0.283691406250  0.076691662984  0.076691662985  1.222707031925
  0.284570312500  0.075787710110  0.075787710111  1.224439402588
  0.285449218750  0.074884745652  0.074884745653  1.226155559143
  0.286328125000  0.073982789315  0.073982789316  1.227855540266
  0.287207031250  0.073081860582  0.073081860583  1.229539384668
  0.288085937500  0.072181978717  0.072181978717  1.231207131098
  0.288964843750  0.071283162767  0.071283162767  1.232858818342
  0.289843750000  0.070385431568  0.070385431568  1.234494485221
  0.290722656250  0.069488803744  0.069488803745  1.236114170591
  0.291601562500  0.068593297714  0.068593297715  1.237717913345
  0.292480468750  0.067698931692  0.067698931692  1.239305752409
  0.293359375000  0.066805723688  0.066805723689  1.240877726745
  0.294238281250  0.065913691518  0.065913691518  1.242433875348
  0.295117187500  0.065022852797  0.065022852797  1.243974237248
  0.295996093750  0.064133224949  0.064133224949  1.245498851509
  0.296875000000  0.063244825207  0.063244825207  1.247007757227
  0.297753906250  0.062357670614  0.062357670615  1.248500993530
  0.298632812500  0.061471778030  0.061471778030  1.249978599581
  0.299511718750  0.060587164127  0.060587164127  1.251440614573
  0.300390625000  0.059703845400  0.059703845400  1.252887077731
  0.301269531250  0.058821838163  0.058821838163  1.254318028312
  0.302148437500  0.057941158553  0.057941158554  1.255733505604
  0.303027343750  0.057061822536  0.057061822536  1.257133548924
  0.303906250000  0.056183845901  0.056183845901  1.258518197620
  0.304785156250  0.055307244271  0.055307244272  1.259887491072
  0.305664062500  0.054432033101  0.054432033101  1.261241468685
  0.306542968750  0.053558227678  0.053558227678  1.262580169897
  0.307421875000  0.052685843128  0.052685843128  1.263903634172
  0.308300781250  0.051814894414  0.051814894415  1.265211901003
  0.309179687500  0.050945396342  0.050945396342  1.266505009912
  0.310058593750  0.050077363557  0.050077363557  1.267783000447
  0.310937500000  0.049210810551  0.049210810551  1.269045912184
  0.311816406250  0.048345751661  0.048345751661  1.270293784724
  0.312695312500  0.047482201074  0.047482201075  1.271526657696
  0.313574218750  0.046620172826  0.046620172827  1.272744570755
  0.314453125000  0.045759680805  0.045759680805  1.273947563580
  0.315332031250  0.044900738753  0.044900738753  1.275135675877
  0.316210937500  0.044043360267  0.044043360267  1.276308947375
  0.317089843750  0.043187558802  0.043187558803  1.277467417828
  0.317968750000  0.042333347672  0.042333347673  1.278611127015
  0.318847656250  0.041480740051  0.041480740052  1.279740114737
  0.319726562500  0.040629748976  0.040629748976  1.280854420820
  0.320605468750  0.039780387346  0.039780387347  1.281954085111
  0.321484375000  0.038932667929  0.038932667930  1.283039147481
  0.322363281250  0.038086603357  0.038086603358  1.284109647822
  0.323242187500  0.037242206133  0.037242206133  1.285165626049
  0.324121093750  0.036399488627  0.036399488628  1.286207122097
  0.325000000000  0.035558463085  0.035558463085  1.287234175924
  0.325878906250  0.034719141622  0.034719141622  1.288246827506
  0.326757812500  0.033881536230  0.033881536230  1.289245116842
  0.327636718750  0.033045658777  0.033045658777  1.290229083950
  0.328515625000  0.032211521008  0.032211521008  1.291198768867
  0.329394531250  0.031379134546  0.031379134547  1.292154211650
  0.330273437500  0.030548510897  0.030548510897  1.293095452375
  0.331152343750  0.029719661445  0.029719661445  1.294022531136
  0.332031250000  0.028892597459  0.028892597460  1.294935488045
  0.332910156250  0.028067330093  0.028067330094  1.295834363234
  0.333789062500  0.027243870385  0.027243870386  1.296719196850
  0.334667968750  0.026422229261  0.026422229261  1.297590029060
  0.335546875000  0.025602417533  0.025602417533  1.298446900044
  0.336425781250  0.024784445905  0.024784445905  1.299289850003
  0.337304687500  0.023968324970  0.023968324970  1.300118919152
  0.338183593750  0.023154065213  0.023154065213  1.300934147722
  0.339062500000  0.022341677012  0.022341677012  1.301735575961
  0.339941406250  0.021531170640  0.021531170640  1.302523244129
  0.340820312500  0.020722556264  0.020722556264  1.303297192506
  0.341699218750  0.019915843948  0.019915843948  1.304057461384
  0.342578125000  0.019111043653  0.019111043654  1.304804091068
  0.343457031250  0.018308165241  0.018308165241  1.305537121880
  0.344335937500  0.017507218470  0.017507218470  1.306256594154
  0.345214843750  0.016708213001  0.016708213002  1.306962548239
  0.346093750000  0.015911158398  0.015911158399  1.307655024496
  0.346972656250  0.015116064126  0.015116064126  1.308334063300
  0.347851562500  0.014322939555  0.014322939555  1.308999705038
  0.348730468750  0.013531793959  0.013531793959  1.309651990109
  0.349609375000  0.012742636519  0.012742636520  1.310290958926
  0.350488281250  0.011955476324  0.011955476324  1.310916651911
  0.351367187500  0.011170322369  0.011170322369  1.311529109501
  0.352246093750  0.010387183559  0.010387183559  1.312128372142
  0.353125000000  0.009606068709  0.009606068710  1.312714480292
  0.354003906250  0.008826986545  0.008826986546  1.313287474418
  0.354882812500  0.008049945705  0.008049945706  1.313847395001
  0.355761718750  0.007274954740  0.007274954740  1.314394282529
  0.356640625000  0.006502022113  0.006502022114  1.314928177502
  0.357519531250  0.005731156204  0.005731156204  1.315449120428
  0.358398437500  0.004962365307  0.004962365308  1.315957151828
  0.359277343750  0.004195657633  0.004195657634  1.316452312227
  0.360156250000  0.003431041311  0.003431041312  1.316934642165
  0.361035156250  0.002668524387  0.002668524387  1.317404182186
  0.361914062500  0.001908114825  0.001908114826  1.317860972844
  0.362792968750  0.001149820512  0.001149820513  1.318305054704
  0.363671875000  0.000393649254  0.000393649254  1.318736468334
  0.364550781250 -0.000360391223 -0.000360391222  1.319155254315
  0.365429687500 -0.001112293267 -0.001112293267  1.319561453232
  0.366308593750 -0.001862049307 -0.001862049306  1.319955105679
  0.367187500000 -0.002609651845 -0.002609651844  1.320336252257
  0.368066406250 -0.003355093459 -0.003355093459  1.320704933575
