radius      S_expected         S_actual            Error 
  0.100000000000  0.207031273120  0.206848198103  0.444057346784
  0.114062500000  0.213756636343  0.213848179838  0.537580969935
  0.128125000000  0.213536714289  0.213628440856  0.624589949293
  0.142187500000  0.208620663703  0.208712786270  0.705387865341
  0.156250000000  0.200450927257  0.200543636402  0.780258862761
  0.170312500000  0.189996796811  0.190090256484  0.849455617768
  0.184375000000  0.177935232734  0.178029576746  0.913197171536
  0.198437500000  0.164754699570  0.164850028995  0.971673997919
  0.212500000000  0.150817673461  0.150914055028  1.025056254158
  0.226562500000  0.136399775559  0.136497241101  1.073501963236
  0.240625000000  0.121715094977  0.121813641964  1.117163448384
  0.254687500000  0.106933043760  0.107032636882  1.156191629758
  0.268750000000  0.092189852912  0.092290426671  1.190738487833
  0.282812500000  0.077596584345  0.077698046559  1.220958218227
  0.296875000000  0.063244825207  0.063347061302  1.247007568710
  0.310937500000  0.049210810551  0.049313688493  1.269045725887
  0.325000000000  0.035558463085  0.035661838771  1.287233992258
  0.339062500000  0.022341677012  0.022445399936  1.301735395297
  0.353125000000  0.009606068709  0.009709987704  1.312714302965
  0.367187500000 -0.002609651845 -0.002505682996  1.320336078569
  0.381250000000 -0.014272581417 -0.014168698697  1.324766784524
  0.395312500000 -0.025354720167 -0.025251044548  1.326172932836
  0.409375000000 -0.035832211548 -0.035728844905  1.324721275352
  0.423437500000 -0.045684688445 -0.045581710290  1.320578626017
  0.437500000000 -0.054894700096 -0.054792165256  1.313911708547
  0.451562500000 -0.063447202764 -0.063345140081  1.304887024795
  0.465625000000 -0.071329103306 -0.071227515407  1.293670741055
  0.479687500000 -0.078528849210 -0.078427713337  1.280428591019
  0.493750000000 -0.085036061833 -0.084935331713  1.265325795019
  0.507812500000 -0.090841211718 -0.090740820385  1.248526995413
  0.521875000000 -0.095935336175 -0.095835199625  1.230196207613
  0.535937500000 -0.100309799970 -0.100209821512  1.210496785497
  0.550000000000 -0.103956100114 -0.103856175235  1.189591398941
  0.564062500000 -0.106865715454 -0.106765736996  1.167642020245
  0.578125000000 -0.109030001147 -0.108929864597  1.144809915454
  0.592187500000 -0.110440127274 -0.110339735941  1.121255636199
  0.606250000000 -0.111087059842 -0.110986329723  1.097139007729
  0.620312500000 -0.110961581383 -0.110860445510  1.072619109291
  0.634375000000 -0.110054347268 -0.109952759369  1.047854243878
  0.648437500000 -0.108355972891 -0.108253910209  1.023001895382
  0.662500000000 -0.105857145996 -0.105754611156  0.998218672180
  0.676562500000 -0.102548757704 -0.102445779549  0.973660236903
  0.690625000000 -0.098422045339 -0.098318678696  0.949481222347
  0.704687500000 -0.093468739846 -0.093365064227  0.925835132986
  0.718750000000 -0.087681210596 -0.087577327876  0.902874230186
  0.732812500000 -0.081052600594 -0.080948631746  0.880749396905
  0.746875000000 -0.073576945540 -0.073473026545  0.859609974476
  0.760937500000 -0.065249270903 -0.065145547979  0.839603559967
  0.775000000000 -0.056065662014 -0.055962286328  0.820875748114
  0.789062500000 -0.046023303216 -0.045920425273  0.803569797212
  0.803125000000 -0.035120483287 -0.035018247192  0.787826195034
  0.817187500000 -0.023356565591 -0.023255103378  0.773782100685
  0.831250000000 -0.010731922671 -0.010631348913  0.761570645390
  0.845312500000  0.002752163652  0.002851756774  0.751320096132
  0.859375000000  0.017093634432  0.017192181420  0.743152931808
  0.873437500000  0.032289814540  0.032387280083  0.737184967124
  0.887500000000  0.048337597954  0.048433979520  0.733524801231
  0.901562500000  0.065233652039  0.065328981465  0.732274071290
  0.915625000000  0.082974634820  0.083068978833  0.733529221780
  0.929687500000  0.101557418756  0.101650878429  0.737385638291
  0.943750000000  0.120979314339  0.121072023485  0.743944792169
  0.957812500000  0.141238286830  0.141330409397  0.753324170957
  0.971875000000  0.162333159728  0.162424886295  0.765668084466
  0.985937500000  0.184263799036  0.184355342531  0.781155466091
  1.000000000000  0.207031273120  0.206848198103  0.800000020948
