radius      S_expected         S_actual            Error 
  0.100000000000 -0.000000000000  0.000000000000  0.000000000000
  0.106818181818  0.018724231680  0.018706098347  0.000703342763
  0.113636363636  0.034966924968  0.034948791643  0.001355606103
  0.120454545455  0.049068772020  0.049050638705  0.001958187489
  0.127272727273  0.061305677478  0.061287544174  0.002512005856
  0.134090909091  0.071903783956  0.071885650665  0.003018024506
  0.140909090909  0.081050446790  0.081032313514  0.003477213507
  0.147727272727  0.088902388443  0.088884255185  0.003890544286
  0.154545454545  0.095591850978  0.095573717741  0.004258988250
  0.161363636364  0.101231302646  0.101213169433  0.004583516308
  0.168181818182  0.105917083750  0.105898950566  0.004865098651
  0.175000000000  0.109732263198  0.109714130046  0.005104704636
  0.181818181818  0.112748900055  0.112730766941  0.005303302712
  0.188636363636  0.115029851236  0.115011718166  0.005461860353
  0.195454545455  0.116630229191  0.116612096172  0.005581344017
  0.202272727273  0.117598586958  0.117580453999  0.005662719093
  0.209090909091  0.117977888867  0.117959755978  0.005706949862
  0.215909090909  0.117806311257  0.117788178449  0.005714999452
  0.222727272727  0.117117907301  0.117099774588  0.005687829799
  0.229545454545  0.115943162388  0.115925029784  0.005626401605
  0.236363636364  0.114309460729  0.114291328253  0.005531674298
  0.243181818182  0.112241479492  0.112223347164  0.005404605990
  0.250000000000  0.109761523401  0.109743391246  0.005246153438
  0.256818181818  0.106889810148  0.106871678195  0.005057272005
  0.263636363636  0.103644714940  0.103626583220  0.004838915620
  0.270454545455  0.100042980925  0.100024849478  0.004592036741
  0.277272727273  0.096099900987  0.096081769856  0.004317586322
  0.284090909091  0.091829475403  0.091811344641  0.004016513780
  0.290909090909  0.087244549067  0.087226418734  0.003689766981
  0.297727272727  0.082356931339  0.082338801506  0.003338292231
  0.304545454545  0.077177501068  0.077159371815  0.002963034319
  0.311363636364  0.071716298906  0.071698170329  0.002564936633
  0.318181818182  0.065982608712  0.065964480922  0.002144941507
  0.325000000000  0.059985029525  0.059966902651  0.001703991220
  0.331818181818  0.053731539392  0.053713413583  0.001243031483
  0.338636363636  0.047229552117  0.047211427546  0.000763028893
  0.345454545455  0.040485967856  0.040467844727  0.000265190807
  0.352272727273  0.033507218339  0.033489096888  0.000251551444
  0.359090909091  0.026299307392  0.026281187893  0.000782873062
  0.365909090909  0.018867847336  0.018849730109  0.001329922001
  0.372727272727  0.011218091775  0.011199977192  0.001891465469
  0.379545454545  0.003354965196  0.003336853688  0.002466547542
  0.386363636364 -0.004716910239 -0.004735018168  0.003054238758
  0.393181818182 -0.012993190362 -0.013011294126  0.003653617462
  0.400000000000 -0.021469786858 -0.021487885777  0.004263766150
  0.406818181818 -0.030142847047 -0.030160940327  0.004883770417
  0.413636363636 -0.039008735355 -0.039026822075  0.005512718610
  0.420454545455 -0.048064016279 -0.048082095364  0.006149701690
  0.427272727273 -0.057305438655 -0.057323508858  0.006793813193
  0.434090909091 -0.066729921067 -0.066747980934  0.007444149229
  0.440909090909 -0.076334538235 -0.076352586075  0.008099808497
  0.447727272727 -0.086116508245 -0.086134542091  0.008759892305
  0.454545454545 -0.096073180488 -0.096091198050  0.009423504607
  0.461363636364 -0.106202024170 -0.106220022785  0.010089752025
  0.468181818182 -0.116500617279 -0.116518593847  0.010757743888
  0.475000000000 -0.126966635879 -0.126984586795  0.011426592263
  0.481818181818 -0.137597843607 -0.137615764674  0.012095411986
  0.488636363636 -0.148392081245 -0.148409967581  0.012763320692
  0.495454545455 -0.159347256240 -0.159365102165  0.013429438853
  0.502272727273 -0.170461332024 -0.170479130927  0.014092889799
  0.509090909091 -0.181732316982 -0.181750061173  0.014752799756
  0.515909090909 -0.193158252912 -0.193175933444  0.015408297868
  0.522727272727 -0.204737202783 -0.204754809245  0.016058516227
  0.529545454545 -0.216467237593 -0.216484757872  0.016702589898
  0.536363636364 -0.228346422096 -0.228363842101  0.017339656944
  0.543181818182 -0.240372799145 -0.240390102480  0.017968858448
  0.550000000000 -0.252544372344 -0.252561539936  0.018589338538
  0.556818181818 -0.264859086686 -0.264876096345  0.019200244403
  0.563636363636 -0.277314806782 -0.277331632695  0.019800726314
  0.570454545455 -0.289909292235 -0.289925904374  0.020389937643
  0.577272727273 -0.302640169664 -0.302656533100  0.020967034875
  0.584090909091 -0.315504900761 -0.315520974866  0.021531177626
  0.590909090909 -0.328500745728 -0.328516483248  0.022081528652
  0.597727272727 -0.341624721288 -0.341640067267  0.022617253861
  0.604545454545 -0.354873552365 -0.354888442894  0.023137522323
  0.611363636364 -0.368243616388 -0.368257977155  0.023641506277
  0.618181818182 -0.381730878989 -0.381744623595  0.024128381132
  0.625000000000 -0.395330819708 -0.395343847713  0.024597325479
  0.631818181818 -0.409038346062 -0.409050540723  0.025047521083
  0.638636363636 -0.422847694123 -0.422858919772  0.025478152891
  0.645454545455 -0.436752313434 -0.436762412441  0.025888409027
  0.652272727273 -0.450744733784 -0.450753523051  0.026277480788
  0.659090909091 -0.464816410988 -0.464823677889  0.026644562639
  0.665909090909 -0.478957548385 -0.478963046090  0.026988852208
  0.672727272727 -0.493156890314 -0.493160332399  0.027309550280
  0.679545454545 -0.507401483296 -0.507402537536  0.027605860785
  0.686363636364 -0.521676400040 -0.521674681296  0.027876990793
  0.693181818182 -0.535964420784 -0.535959482846  0.028122150502
  0.700000000000 -0.550245665766 -0.550236992042  0.028340553237
  0.706818181818 -0.564497171879 -0.564484164800  0.028531415440
  0.713636363636 -0.578692405820 -0.578674374828  0.028693956671
  0.720454545455 -0.592800705253 -0.592776853255  0.028827399613
  0.727272727273 -0.606786638829 -0.606756047011  0.028930970088
  0.734090909091 -0.620609275242 -0.620570886173  0.029003897078
  0.740909090909 -0.634221351161 -0.634173950169  0.029045412772
  0.747727272727 -0.647568327736 -0.647510522625  0.029054752627
  0.754545454545 -0.660587325865 -0.660517525158  0.029031155460
  0.761363636364 -0.673205931568 -0.673122321649  0.028973863582
  0.768181818182 -0.685340865121 -0.685241386904  0.028882122966
  0.775000000000 -0.696896511433 -0.696778837519  0.028755183486
  0.781818181818 -0.707763315089 -0.707624828864  0.028592299209
  0.788636363636 -0.717816052322 -0.717653831065  0.028392728763
  0.795454545455 -0.726912004838 -0.726722809739  0.028155735777
  0.802272727273 -0.734889078103 -0.734669355158  0.027880589377
  0.809090909091 -0.741563930872 -0.741309827943  0.027566564693
  0.815909090909 -0.746730215004 -0.746437621999  0.027212943304
  0.822727272727 -0.750157066936 -0.749821687992  0.026819013480
  0.829545454545 -0.751588046376 -0.751205515174  0.026384069969
  0.836363636364 -0.750740785601 -0.750306837310  0.025907412978
  0.843181818182 -0.747307695135 -0.746818410835  0.025388345813
  0.850000000000 -0.740958168286 -0.740410309491  0.024826170461
  0.856818181818 -0.731342834970 -0.730734286594  0.024220180267
  0.863636363636 -0.718100527738 -0.717430866349  0.023569648792
  0.870454545455 -0.700868726963 -0.700139926163  0.022873814271
  0.877272727273 -0.679298326384 -0.678515600842  0.022131859911
  0.884090909091 -0.653073572587 -0.652246344551  0.021342892167
  0.890909090909 -0.621937937450 -0.621080882427  0.020505922423
  0.897727272727 -0.585726423206 -0.584860513637  0.019619862554
  0.904545454545 -0.544404308300 -0.543557725663  0.018683551488
  0.911363636364 -0.498111550954 -0.497320281528  0.017695836872
  0.918181818182 -0.447210926639 -0.446518802418  0.016655740341
  0.925000000000 -0.392336481083 -0.391794389969  0.015562731894
  0.931818181818 -0.334437110498 -0.334101100067  0.014417122660
  0.938636363636 -0.274808237718 -0.274736299786  0.013220552702
  0.945454545455 -0.215102998497 -0.215350469809  0.011976507558
  0.952272727273 -0.157313621026 -0.157927377654  0.010690770901
  0.959090909091 -0.103714456736 -0.104726397738  0.009371776231
  0.965909090909 -0.056761141197 -0.058181794834  0.008031096130
  0.972727272727 -0.018946218505 -0.020759568163  0.006685119663
  0.979545454545  0.007379733558  0.005219028906  0.005361187918
  0.986363636364  0.020202123964  0.017768140747  0.004117811805
  0.993181818182  0.018023358177  0.015414480396  0.003104969691
  1.000000000000 -0.000000000000  0.000000000000  0.000000000000
