radius      S_expected         S_actual            Error 
  0.100000000000  0.004162918916  0.004162664717  0.805245614745
  0.103515625000  0.004205794296  0.004205921396  0.810884121912
  0.107031250000  0.004237063730  0.004237190830  0.816420171188
  0.110546875000  0.004257930761  0.004258057860  0.821854451587
  0.114062500000  0.004269450556  0.004269577655  0.827187652075
  0.117578125000  0.004272552093  0.004272679192  0.832420461568
  0.121093750000  0.004268056476  0.004268183575  0.837553568934
  0.124609375000  0.004256692152  0.004256819252  0.842587662990
  0.128125000000  0.004239107626  0.004239234725  0.847523432505
  0.131640625000  0.004215882131  0.004216009230  0.852361566198
  0.135156250000  0.004187534641  0.004187661741  0.857102752740
  0.138671875000  0.004154531510  0.004154658610  0.861747680752
  0.142187500000  0.004117292974  0.004117420074  0.866297038806
  0.145703125000  0.004076198717  0.004076325816  0.870751515424
  0.149218750000  0.004031592647  0.004031719746  0.875111799079
  0.152734375000  0.003983787015  0.003983914115  0.879378578197
  0.156250000000  0.003933065976  0.003933193075  0.883552541151
  0.159765625000  0.003879688678  0.003879815777  0.887634376269
  0.163281250000  0.003823891956  0.003824019056  0.891624771826
  0.166796875000  0.003765892685  0.003766019785  0.895524416051
  0.170312500000  0.003705889838  0.003706016937  0.899333997120
  0.173828125000  0.003644066295  0.003644193395  0.903054203164
  0.177343750000  0.003580590442  0.003580717541  0.906685722263
  0.180859375000  0.003515617576  0.003515744675  0.910229242446
  0.184375000000  0.003449291155  0.003449418255  0.913685451696
  0.187890625000  0.003381743906  0.003381871006  0.917055037945
  0.191406250000  0.003313098808  0.003313225908  0.920338689077
  0.194921875000  0.003243469974  0.003243597074  0.923537092924
  0.198437500000  0.003172963434  0.003173090534  0.926650937273
  0.201953125000  0.003101677840  0.003101804939  0.929680909858
  0.205468750000  0.003029705097  0.003029832196  0.932627698367
  0.208984375000  0.002957130929  0.002957258028  0.935491990436
  0.212500000000  0.002884035393  0.002884162493  0.938274473655
  0.216015625000  0.002810493339  0.002810620439  0.940975835560
  0.219531250000  0.002736574826  0.002736701925  0.943596763644
  0.223046875000  0.002662345498  0.002662472598  0.946137945346
  0.226562500000  0.002587866934  0.002587994033  0.948600068058
  0.230078125000  0.002513196947  0.002513324047  0.950983819122
  0.233593750000  0.002438389879  0.002438516978  0.953289885831
  0.237109375000  0.002363496850  0.002363623950  0.955518955430
  0.240625000000  0.002288565998  0.002288693098  0.957671715114
  0.244140625000  0.002213642691  0.002213769791  0.959748852028
  0.247656250000  0.002138769726  0.002138896825  0.961751053269
  0.251171875000  0.002063987505  0.002064114605  0.963679005885
  0.254687500000  0.001989334207  0.001989461306  0.965533396873
  0.258203125000  0.001914845932  0.001914973031  0.967314913183
  0.261718750000  0.001840556845  0.001840683944  0.969024241716
  0.265234375000  0.001766499303  0.001766626403  0.970662069322
  0.268750000000  0.001692703975  0.001692831074  0.972229082803
  0.272265625000  0.001619199946  0.001619327046  0.973725968911
  0.275781250000  0.001546014825  0.001546141925  0.975153414351
  0.279296875000  0.001473174833  0.001473301932  0.976512105777
  0.282812500000  0.001400704888  0.001400831988  0.977802729794
  0.286328125000  0.001328628692  0.001328755792  0.979025972958
  0.289843750000  0.001256968797  0.001257095897  0.980182521777
  0.293359375000  0.001185746679  0.001185873778  0.981273062708
  0.296875000000  0.001114982798  0.001115109897  0.982298282161
  0.300390625000  0.001044696660  0.001044823760  0.983258866495
  0.303906250000  0.000974906874  0.000975033974  0.984155502020
  0.307421875000  0.000905631198  0.000905758297  0.984988874999
  0.310937500000  0.000836886590  0.000837013689  0.985759671644
  0.314453125000  0.000768689253  0.000768816353  0.986468578118
  0.317968750000  0.000701054679  0.000701181778  0.987116280535
  0.321484375000  0.000633997680  0.000634124780  0.987703464961
  0.325000000000  0.000567532436  0.000567659535  0.988230817412
  0.328515625000  0.000501672517  0.000501799617  0.988699023854
  0.332031250000  0.000436430927  0.000436558026  0.989108770206
  0.335546875000  0.000371820123  0.000371947222  0.989460742336
  0.339062500000  0.000307852050  0.000307979149  0.989755626065
  0.342578125000  0.000244538166  0.000244665265  0.989994107162
  0.346093750000  0.000181889465  0.000182016565  0.990176871350
  0.349609375000  0.000119916503  0.000120043603  0.990304604300
  0.353125000000  0.000058629417  0.000058756517  0.990377991637
  0.356640625000 -0.000001962053 -0.000001834953  0.990397718934
  0.360156250000 -0.000061848543 -0.000061721444  0.990364471717
  0.363671875000 -0.000121021052 -0.000120893953  0.990278935462
  0.367187500000 -0.000179470917 -0.000179343818  0.990141795597
  0.370703125000 -0.000237189805 -0.000237062705  0.989953737499
  0.374218750000 -0.000294169689 -0.000294042590  0.989715446496
  0.377734375000 -0.000350402844 -0.000350275744  0.989427607871
  0.381250000000 -0.000405881822 -0.000405754723  0.989090906852
  0.384765625000 -0.000460599448 -0.000460472349  0.988706028623
  0.388281250000 -0.000514548804 -0.000514421705  0.988273658315
  0.391796875000 -0.000567723218 -0.000567596118  0.987794481013
  0.395312500000 -0.000620116251 -0.000619989152  0.987269181751
  0.398828125000 -0.000671721691 -0.000671594592  0.986698445515
  0.402343750000 -0.000722533540 -0.000722406440  0.986082957241
  0.405859375000 -0.000772546005 -0.000772418905  0.985423401818
  0.409375000000 -0.000821753490 -0.000821626391  0.984720464084
  0.412890625000 -0.000870150588 -0.000870023488  0.983974828828
  0.416406250000 -0.000917732071 -0.000917604972  0.983187180790
  0.419921875000 -0.000964492885 -0.000964365786  0.982358204663
  0.423437500000 -0.001010428142 -0.001010301042  0.981488585089
  0.426953125000 -0.001055533110 -0.001055406011  0.980579006660
  0.430468750000 -0.001099803213 -0.001099676113  0.979630153922
  0.433984375000 -0.001143234018 -0.001143106919  0.978642711370
  0.437500000000 -0.001185821235 -0.001185694136  0.977617363450
  0.441015625000 -0.001227560707 -0.001227433608  0.976554794559
  0.444531250000 -0.001268448407 -0.001268321308  0.975455689047
  0.448046875000 -0.001308480432 -0.001308353333  0.974320731212
  0.451562500000 -0.001347652998 -0.001347525899  0.973150605304
  0.455078125000 -0.001385962437 -0.001385835338  0.971945995525
  0.458593750000 -0.001423405191 -0.001423278091  0.970707586027
  0.462109375000 -0.001459977807 -0.001459850708  0.969436060914
  0.465625000000 -0.001495676936 -0.001495549837  0.968132104239
  0.469140625000 -0.001530499327 -0.001530372228  0.966796400009
  0.472656250000 -0.001564441823 -0.001564314724  0.965429632179
  0.476171875000 -0.001597501359 -0.001597374259  0.964032484657
  0.479687500000 -0.001629674956 -0.001629547857  0.962605641302
  0.483203125000 -0.001660959724 -0.001660832624  0.961149785922
  0.486718750000 -0.001691352849 -0.001691225750  0.959665602278
  0.490234375000 -0.001720851601 -0.001720724502  0.958153774081
  0.493750000000 -0.001749453322 -0.001749326223  0.956614984995
  0.497265625000 -0.001777155430 -0.001777028330  0.955049918632
  0.500781250000 -0.001803955411 -0.001803828311  0.953459258557
  0.504296875000 -0.001829850821 -0.001829723721  0.951843688286
  0.507812500000 -0.001854839281 -0.001854712182  0.950203891285
  0.511328125000 -0.001878918478 -0.001878791378  0.948540550971
  0.514843750000 -0.001902086156 -0.001901959057  0.946854350714
  0.518359375000 -0.001924340122 -0.001924213023  0.945145973834
  0.521875000000 -0.001945678239 -0.001945551140  0.943416103600
  0.525390625000 -0.001966098425 -0.001965971326  0.941665423235
  0.528906250000 -0.001985598652 -0.001985471553  0.939894615911
  0.532421875000 -0.002004176944 -0.002004049845  0.938104364754
  0.535937500000 -0.002021831375 -0.002021704275  0.936295352836
  0.539453125000 -0.002038560067 -0.002038432967  0.934468263186
  0.542968750000 -0.002054361189 -0.002054234090  0.932623778779
  0.546484375000 -0.002069232957 -0.002069105857  0.930762582544
  0.550000000000 -0.002083173627 -0.002083046528  0.928885357360
  0.553515625000 -0.002096181503 -0.002096054404  0.926992786058
  0.557031250000 -0.002108254926 -0.002108127826  0.925085551419
  0.560546875000 -0.002119392277 -0.002119265178  0.923164336174
  0.564062500000 -0.002129591979 -0.002129464880  0.921229823009
  0.567578125000 -0.002138852489 -0.002138725390  0.919282694558
  0.571093750000 -0.002147172302 -0.002147045203  0.917323633405
  0.574609375000 -0.002154549948 -0.002154422849  0.915353322089
  0.578125000000 -0.002160983991 -0.002160856891  0.913372443097
  0.581640625000 -0.002166473027 -0.002166345928  0.911381678867
  0.585156250000 -0.002171015687 -0.002170888587  0.909381711791
  0.588671875000 -0.002174610629 -0.002174483530  0.907373224209
  0.592187500000 -0.002177256546 -0.002177129447  0.905356898413
  0.595703125000 -0.002178952156 -0.002178825057  0.903333416647
  0.599218750000 -0.002179696209 -0.002179569110  0.901303461106
  0.602734375000 -0.002179487480 -0.002179360380  0.899267713935
  0.606250000000 -0.002178324771 -0.002178197672  0.897226857231
  0.609765625000 -0.002176206913 -0.002176079813  0.895181573041
  0.613281250000 -0.002173132758 -0.002173005659  0.893132543365
  0.616796875000 -0.002169101186 -0.002168974087  0.891080450152
  0.620312500000 -0.002164111100 -0.002163984000  0.889025975305
  0.623828125000 -0.002158161425 -0.002158034325  0.886969800675
  0.627343750000 -0.002151251110 -0.002151124010  0.884912608065
  0.630859375000 -0.002143379125 -0.002143252026  0.882855079231
  0.634375000000 -0.002134544463 -0.002134417363  0.880797895878
  0.637890625000 -0.002124746135 -0.002124619036  0.878741739663
  0.641406250000 -0.002113983175 -0.002113856075  0.876687292194
  0.644921875000 -0.002102254634 -0.002102127535  0.874635235030
  0.648437500000 -0.002089559585 -0.002089432486  0.872586249682
  0.651953125000 -0.002075897117 -0.002075770018  0.870541017611
  0.655468750000 -0.002061266338 -0.002061139239  0.868500220229
  0.658984375000 -0.002045666375 -0.002045539276  0.866464538901
  0.662500000000 -0.002029096370 -0.002028969270  0.864434654941
  0.666015625000 -0.002011555482 -0.002011428383  0.862411249615
  0.669531250000 -0.001993042888 -0.001992915788  0.860395004142
  0.673046875000 -0.001973557778 -0.001973430679  0.858386599688
  0.676562500000 -0.001953099361 -0.001952972262  0.856386717375
  0.680078125000 -0.001931666858 -0.001931539758  0.854396038272
  0.683593750000 -0.001909259506 -0.001909132406  0.852415243401
  0.687109375000 -0.001885876555 -0.001885749455  0.850445013737
  0.690625000000 -0.001861517271 -0.001861390171  0.848486030202
  0.694140625000 -0.001836180932 -0.001836053832  0.846538973673
  0.697656250000 -0.001809866829 -0.001809739730  0.844604524977
  0.701171875000 -0.001782574267 -0.001782447168  0.842683364890
  0.704687500000 -0.001754302563 -0.001754175464  0.840776174143
  0.708203125000 -0.001725051047 -0.001724923947  0.838883633416
  0.711718750000 -0.001694819058 -0.001694691959  0.837006423340
  0.715234375000 -0.001663605951 -0.001663478852  0.835145224498
  0.718750000000 -0.001631411089 -0.001631283990  0.833300717423
  0.722265625000 -0.001598233847 -0.001598106748  0.831473582602
  0.725781250000 -0.001564073612 -0.001563946513  0.829664500469
  0.729296875000 -0.001528929780 -0.001528802681  0.827874151414
  0.732812500000 -0.001492801758 -0.001492674658  0.826103215774
  0.736328125000 -0.001455688962 -0.001455561863  0.824352373840
  0.739843750000 -0.001417590821 -0.001417463721  0.822622305852
  0.743359375000 -0.001378506769 -0.001378379670  0.820913692004
  0.746875000000 -0.001338436253 -0.001338309154  0.819227212440
  0.750390625000 -0.001297378728 -0.001297251628  0.817563547253
  0.753906250000 -0.001255333656 -0.001255206557  0.815923376490
  0.757421875000 -0.001212300512 -0.001212173413  0.814307380149
  0.760937500000 -0.001168278775 -0.001168151676  0.812716238178
  0.764453125000 -0.001123267935 -0.001123140836  0.811150630477
  0.767968750000 -0.001077267490 -0.001077140391  0.809611236897
  0.771484375000 -0.001030276944 -0.001030149845  0.808098737241
  0.775000000000 -0.000982295812 -0.000982168712  0.806613811263
  0.778515625000 -0.000933323613 -0.000933196514  0.805157138667
  0.782031250000 -0.000883359876 -0.000883232776  0.803729399109
  0.785546875000 -0.000832404136 -0.000832277037  0.802331272198
  0.789062500000 -0.000780455936 -0.000780328837  0.800963437491
  0.792578125000 -0.000727514825 -0.000727387726  0.799626574499
  0.796093750000 -0.000673580360 -0.000673453260  0.798321362683
  0.799609375000 -0.000618652102 -0.000618525003  0.797048481456
  0.803125000000 -0.000562729623 -0.000562602523  0.795808610181
  0.806640625000 -0.000505812496 -0.000505685397  0.794602428174
  0.810156250000 -0.000447900305 -0.000447773206  0.793430614701
  0.813671875000 -0.000388992637 -0.000388865537  0.792293848980
  0.817187500000 -0.000329089085 -0.000328961986  0.791192810180
  0.820703125000 -0.000268189251 -0.000268062152  0.790128177421
  0.824218750000 -0.000206292739 -0.000206165639  0.789100629774
  0.827734375000 -0.000143399159 -0.000143272060  0.788110846264
  0.831250000000 -0.000079508130 -0.000079381030  0.787159505863
  0.834765625000 -0.000014619271 -0.000014492172  0.786247287498
  0.838281250000  0.000051267789  0.000051394888  0.785374870045
  0.841796875000  0.000118153418  0.000118280518  0.784542932333
  0.845312500000  0.000186037980  0.000186165079  0.783752153141
  0.848828125000  0.000254921832  0.000255048932  0.783003211200
  0.852343750000  0.000324805328  0.000324932427  0.782296785192
  0.855859375000  0.000395688816  0.000395815915  0.781633553750
  0.859375000000  0.000467572639  0.000467699738  0.781014195460
  0.862890625000  0.000540457137  0.000540584237  0.780439388858
  0.866406250000  0.000614342646  0.000614469745  0.779909812431
  0.869921875000  0.000689229495  0.000689356594  0.779426144618
  0.873437500000  0.000765118010  0.000765245110  0.778989063809
  0.876953125000  0.000842008515  0.000842135614  0.778599248345
  0.880468750000  0.000919901326  0.000920028425  0.778257376521
  0.883984375000  0.000998796758  0.000998923858  0.777964126580
  0.887500000000  0.001078695122  0.001078822221  0.777720176717
  0.891015625000  0.001159596722  0.001159723822  0.777526205080
  0.894531250000  0.001241501863  0.001241628962  0.777382889767
  0.898046875000  0.001324410842  0.001324537941  0.777290908827
  0.901562500000  0.001408323955  0.001408451054  0.777250940263
  0.905078125000  0.001493241493  0.001493368593  0.777263662026
  0.908593750000  0.001579163745  0.001579290845  0.777329752020
  0.912109375000  0.001666090996  0.001666218095  0.777449888101
  0.915625000000  0.001754023526  0.001754150625  0.777624748075
  0.919140625000  0.001842961614  0.001843088713  0.777855009701
  0.922656250000  0.001932905534  0.001933032633  0.778141350687
  0.926171875000  0.002023855559  0.002023982658  0.778484448695
  0.929687500000  0.002115811956  0.002115939056  0.778884981337
  0.933203125000  0.002208774993  0.002208902092  0.779343626177
  0.936718750000  0.002302744930  0.002302872029  0.779861060729
  0.940234375000  0.002397722028  0.002397849127  0.780437962460
  0.943750000000  0.002493706543  0.002493833642  0.781075008788
  0.947265625000  0.002590698729  0.002590825828  0.781772877083
  0.950781250000  0.002688698838  0.002688825937  0.782532244665
  0.954296875000  0.002787707118  0.002787834217  0.783353788806
  0.957812500000  0.002887723814  0.002887850913  0.784238186730
  0.961328125000  0.002988749170  0.002988876269  0.785186115612
  0.964843750000  0.003090783426  0.003090910525  0.786198252578
  0.968359375000  0.003193826820  0.003193953920  0.787275274707
  0.971875000000  0.003297879588  0.003298006688  0.788417859028
  0.975390625000  0.003402941963  0.003403069063  0.789626682521
  0.978906250000  0.003509014176  0.003509141275  0.790902422119
  0.982421875000  0.003616096454  0.003616223554  0.792245754705
  0.985937500000  0.003724189024  0.003724316124  0.793657357116
  0.989453125000  0.003833292110  0.003833419210  0.795137906137
  0.992968750000  0.003943405934  0.003943533033  0.796688078506
  0.996484375000  0.004054530713  0.004054657813  0.798308550913
  1.000000000000  0.004166666667  0.004166412468  0.800000000000
