 radius M_x M_theta A_actual 
  0.20000000000000001       0.16249962637212087        7.9243951803762105E-002
  0.20606060606060608       0.16249980945907960        8.0434314310626753E-002
  0.21212121212121213       0.16249990282922105        8.1607234398311024E-002
  0.21818181818181820       0.16249995044558943        8.2763453377116478E-002
  0.22424242424242424       0.16249997472864433        8.3903661420663647E-002
  0.23030303030303031       0.16249998711232549        8.5028502372367920E-002
  0.23636363636363639       0.16249999342765320        8.6138577986189999E-002
  0.24242424242424243       0.16249999664829082        8.7234451680977265E-002
  0.24848484848484850       0.16249999829072417        8.8316651874895791E-002
  0.25454545454545457       0.16249999912831831        8.9385674955968067E-002
  0.26060606060606062       0.16249999955546748        9.0441987936108692E-002
  0.26666666666666666       0.16249999977330151        9.1486030828924272E-002
  0.27272727272727271       0.16249999988439104        9.2518218785626230E-002
  0.27878787878787881       0.16249999994104425        9.3538944018468462E-002
  0.28484848484848485       0.16249999996993722        9.4548577536986214E-002
  0.29090909090909089       0.16249999998467465        9.5547470718834848E-002
  0.29696969696969699       0.16249999999219591        9.6535956734088074E-002
  0.30303030303030304       0.16249999999604250        9.7514351839366034E-002
  0.30909090909090908       0.16249999999802564        9.8482956556045137E-002
  0.31515151515151518       0.16249999999907913        9.9442056744992999E-002
  0.32121212121212123       0.16249999999969902       0.10039192458872383     
  0.32727272727272727       0.16250000000017722       0.10133281949053871     
  0.33333333333333337       0.16250000000073883       0.10226498889906965     
  0.33939393939393941       0.16250000000164838       0.10318866906565408     
  0.34545454545454546       0.16250000000333406       0.10410408574111030     
  0.35151515151515156       0.16250000000658968       0.10501145481773580     
  0.35757575757575755       0.16250000001294812       0.10591098292170201     
  0.36363636363636365       0.16250000002540341       0.10680286796045112     
  0.36969696969696975       0.16250000004982032       0.10768729962920309     
  0.37575757575757573       0.16250000009769588       0.10856445988024556     
  0.38181818181818183       0.16250000019157312       0.10943452335829526     
  0.38787878787878788       0.16250000037565560       0.11029765780488193     
  0.39393939393939392       0.16250000073662141       0.11115402443440658     
  0.40000000000000002       0.16250000144443694       0.11200377828426258     
  0.40606060606060607       0.16250000283238825       0.11284706854117257     
  0.41212121212121211       0.16250000555401359       0.11368403884568715     
  0.41818181818181821       0.16250001089083160       0.11451482757660515     
  0.42424242424242425       0.16250002135576133       0.11533956811691039     
  0.43030303030303030       0.16250004187635750       0.11615838910267219     
  0.43636363636363640       0.16250008211498096       0.11697141465622511     
  0.44242424242424244       0.16250016101829454       0.11777876460482425     
  0.44848484848484849       0.16250031573791096       0.11858055468586751     
  0.45454545454545453       0.16250061912117425       0.11937689673967923     
  0.46060606060606063       0.16250121400232756       0.12016789889076496     
  0.46666666666666667       0.16250238041923964       0.12095366571836880     
  0.47272727272727272       0.16250466732362401       0.12173429841709499     
  0.47878787878787882       0.16250915048702741       0.12250989494829216     
  0.48484848484848486       0.16251793682987775       0.12328055018284154     
  0.49090909090909091       0.16253514799688770       0.12404635603593805     
  0.49696969696969701       0.16256882852549143       0.12480740159440665     
  0.50303030303030305       0.16263460936112967       0.12556377323705262     
  0.50909090909090904       0.16276259611283211       0.12631555474850661     
  0.51515151515151514       0.16300977800296781       0.12706282742698904     
  0.52121212121212124       0.16348041091954890       0.12780567018638544     
  0.52727272727272734       0.16435266840812618       0.12854415965299684     
  0.53333333333333333       0.16589139037425249       0.12927837025729955     
  0.53939393939393943       0.16838326981852147       0.13000837432102658     
  0.54545454545454541       0.17190886293741761       0.13073424213985776     
  0.55151515151515151       0.17604971050055707       0.13145604206198749     
  0.55757575757575761       0.17997084588322784       0.13217384056281756     
  0.56363636363636371       0.18299558516605827       0.13288770231600661     
  0.56969696969696970       0.18498041932346235       0.13359769026109089     
  0.57575757575757569       0.18614833156960001       0.13430386566787689     
  0.58181818181818179       0.18679192794889241       0.13500628819779123     
  0.58787878787878789       0.18713382131699158       0.13570501596236273     
  0.59393939393939399       0.18731190932704112       0.13640010557899865     
  0.60000000000000009       0.18740372419110174       0.13709161222420568     
  0.60606060606060608       0.18745080926429247       0.13777958968439866     
  0.61212121212121207       0.18747488992164565       0.13846409040442834     
  0.61818181818181817       0.18748718827294514       0.13914516553395240     
  0.62424242424242427       0.18749346474471679       0.13982286497176594     
  0.63030303030303036       0.18749666677986715       0.14049723740820000     
  0.63636363636363635       0.18749830004206394       0.14116833036568957     
  0.64242424242424245       0.18749913304121815       0.14183619023760785     
  0.64848484848484844       0.18749955786832070       0.14250086232545528     
  0.65454545454545454       0.18749977452354352       0.14316239087448859     
  0.66060606060606064       0.18749988501295223       0.14382081910786867     
  0.66666666666666674       0.18749994135976444       0.14447618925940192     
  0.67272727272727273       0.18749997009512381       0.14512854260494537     
  0.67878787878787872       0.18749998474936008       0.14577791949254174     
  0.68484848484848482       0.18749999222260780       0.14642435937134599     
  0.69090909090909092       0.18749999603375200       0.14706790081940302     
  0.69696969696969702       0.18749999797732692       0.14770858157033115     
  0.70303030303030312       0.18749999896849465       0.14834643853896362     
  0.70909090909090899       0.18749999947396195       0.14898150784599803     
  0.71515151515151509       0.18749999973173598       0.14961382484169936     
  0.72121212121212119       0.18749999986319366       0.15024342412870118     
  0.72727272727272729       0.18749999993023397       0.15087033958394666     
  0.73333333333333339       0.18749999996442382       0.15149460437980830     
  0.73939393939393949       0.18749999998186206       0.15211625100442402     
  0.74545454545454537       0.18749999999075981       0.15273531128128476     
  0.75151515151515147       0.18749999999530667       0.15335181638810705     
  0.75757575757575757       0.18749999999764361       0.15396579687502171     
  0.76363636363636367       0.18749999999887099       0.15457728268210966     
  0.76969696969696977       0.18749999999956674       0.15518630315631229     
  0.77575757575757587       0.18750000000005851       0.15579288706774433     
  0.78181818181818175       0.18750000000057784       0.15639706262543368     
  0.78787878787878785       0.18750000000136924       0.15699885749251422     
  0.79393939393939394       0.18750000000280537       0.15759829880089285     
  0.80000000000000004       0.18750000000556247       0.15819541316541430     
  0.80606060606060614       0.18750000001093878       0.15879022669754372     
  0.81212121212121202       0.18750000002146575       0.15938276501858756     
  0.81818181818181812       0.18750000004210024       0.15997305327247077     
  0.82424242424242422       0.18750000008255827       0.16056111613808943     
  0.83030303030303032       0.18750000016189017       0.16114697784125526     
  0.83636363636363642       0.18750000031745062       0.16173066216624840     
  0.84242424242424252       0.18750000062248764       0.16231219246699449     
  0.84848484848484840       0.18750000122063279       0.16289159167788031     
  0.85454545454545450       0.18750000239353201       0.16346888232422252     
  0.86060606060606060       0.18750000469346303       0.16404408653240302     
  0.86666666666666670       0.18750000920338358       0.16461722603968351     
  0.87272727272727280       0.18750001804685656       0.16518832220371180     
  0.87878787878787890       0.18750003538795468       0.16575739601173198     
  0.88484848484848477       0.18750006939194624       0.16632446808950854     
  0.89090909090909087       0.18750013606991284       0.16688955870997674     
  0.89696969696969697       0.18750026681732873       0.16745268780162795     
  0.90303030303030307       0.18750052319522856       0.16801387495664100     
  0.90909090909090917       0.18750102590994050       0.16857313943876806     
  0.91515151515151527       0.18750201162169083       0.16913050019098452     
  0.92121212121212115       0.18750394427265635       0.16968597584291123     
  0.92727272727272725       0.18750773312964003       0.17023958471801753     
  0.93333333333333335       0.18751515934447349       0.17079134484061248     
  0.93939393939393945       0.18752970856299800       0.17134127394263249     
  0.94545454545454555       0.18755818890925238       0.17188938947023200     
  0.95151515151515142       0.18761384767934378       0.17243570859018448     
  0.95757575757575752       0.18772227065470359       0.17298024819610039     
  0.96363636363636362       0.18793215729011320       0.17352302491446789     
  0.96969696969696972       0.18833356896067155       0.17406405511052345     
  0.97575757575757582       0.18908379758807567       0.17460335489395723     
  0.98181818181818192       0.19042745257929355       0.17514094012445944     
  0.98787878787878780       0.19265984511155385       0.17567682641711271     
  0.99393939393939390       0.19594339479617989       0.17621102914763626     
   1.0000000000000000       0.19999999999999998       0.17674356345748571     
