 radius M_x M_theta A_actual 
  0.20000000000000001       0.16249962637212087        7.9243951803762105E-002
  0.20307692307692310       0.16249973456119823        7.9850517685244884E-002
  0.20615384615384616       0.16249981142288056        8.0452489373963459E-002
  0.20923076923076925       0.16249986602825933        8.1049969199060476E-002
  0.21230769230769231       0.16249990482187870        8.1643055741430728E-002
  0.21538461538461540       0.16249993238222732        8.2231844023172240E-002
  0.21846153846153848       0.16249995196205116        8.2816425684899983E-002
  0.22153846153846155       0.16249996587222687        8.3396889151860151E-002
  0.22461538461538463       0.16249997575448705        8.3973319789697021E-002
  0.22769230769230769       0.16249998277517760        8.4545800050649850E-002
  0.23076923076923078       0.16249998776291172        8.5114409610888564E-002
  0.23384615384615387       0.16249999130636489        8.5679225499635969E-002
  0.23692307692307693       0.16249999382375230        8.6240322220669352E-002
  0.24000000000000002       0.16249999561218822        8.6797771866743423E-002
  0.24307692307692308       0.16249999688275266        8.7351644227432940E-002
  0.24615384615384617       0.16249999778540392        8.7902006890851134E-002
  0.24923076923076926       0.16249999842667739        8.8448925339664142E-002
  0.25230769230769234       0.16249999888225941        8.8992463041787317E-002
  0.25538461538461538       0.16249999920592001        8.9532681536119180E-002
  0.25846153846153846       0.16249999943585930        9.0069640513640969E-002
  0.26153846153846155       0.16249999959921585        9.0603397894184035E-002
  0.26461538461538464       0.16249999971526985        9.1134009899145108E-002
  0.26769230769230767       0.16249999979771854        9.1661531120407300E-002
  0.27076923076923076       0.16249999985629293        9.2186014585706563E-002
  0.27384615384615385       0.16249999989790631        9.2707511820664654E-002
  0.27692307692307694       0.16249999992747008        9.3226072907694454E-002
  0.28000000000000003       0.16249999994847347        9.3741746541967957E-002
  0.28307692307692311       0.16249999996339548        9.4254580084624340E-002
  0.28615384615384615       0.16249999997399722        9.4764619613382117E-002
  0.28923076923076924       0.16249999998153000        9.5271909970709154E-002
  0.29230769230769232       0.16249999998688283        9.5776494809692525E-002
  0.29538461538461541       0.16249999999068754        9.6278416637741351E-002
  0.29846153846153844       0.16249999999339312        9.6777716858246252E-002
  0.30153846153846153       0.16249999999531894        9.7274435810311352E-002
  0.30461538461538462       0.16249999999669226        9.7768612806666030E-002
  0.30769230769230771       0.16249999999767520        9.8260286169858185E-002
  0.31076923076923080       0.16249999999838377        9.8749493266822530E-002
  0.31384615384615389       0.16249999999890158        9.9236270541912711E-002
  0.31692307692307692       0.16249999999928971        9.9720653548479546E-002
  0.32000000000000001       0.16249999999959405       0.10020267697907308     
  0.32307692307692309       0.16249999999985049       0.10068237469434081     
  0.32615384615384613       0.16250000000008927       0.10115977975069057     
  0.32923076923076922       0.16250000000033857       0.10163492442678163     
  0.33230769230769230       0.16250000000062784       0.10210784024890426     
  0.33538461538461539       0.16250000000099121       0.10257855801530454     
  0.33846153846153848       0.16250000000147158       0.10304710781950685     
  0.34153846153846157       0.16250000000212564       0.10351351907268480     
  0.34461538461538466       0.16250000000303058       0.10397782052512698     
  0.34769230769230769       0.16250000000429318       0.10444004028684239     
  0.35076923076923078       0.16250000000606252       0.10490020584734698     
  0.35384615384615387       0.16250000000854736       0.10535834409467096     
  0.35692307692307690       0.16250000001204101       0.10581448133362394     
  0.35999999999999999       0.16250000001695580       0.10626864330335302     
  0.36307692307692307       0.16250000002387183       0.10672085519422701     
  0.36615384615384616       0.16250000003360532       0.10717114166407826     
  0.36923076923076925       0.16250000004730508       0.10761952685383143     
  0.37230769230769234       0.16250000006658802       0.10806603440254753     
  0.37538461538461543       0.16250000009373000       0.10851068746190957     
  0.37846153846153846       0.16250000013193450       0.10895350871017510     
  0.38153846153846155       0.16250000018571056       0.10939452036561925     
  0.38461538461538464       0.16250000026140515       0.10983374419949096     
  0.38769230769230767       0.16250000036795206       0.11027120154850374     
  0.39076923076923076       0.16250000051792657       0.11070691332688112     
  0.39384615384615385       0.16250000072902940       0.11114090003797633     
  0.39692307692307693       0.16250000102617593       0.11157318178548419     
  0.40000000000000002       0.16250000144443694       0.11200377828426258     
  0.40307692307692311       0.16250000203317772       0.11243270887078019     
  0.40615384615384620       0.16250000286188435       0.11285999251320598     
  0.40923076923076923       0.16250000402836492       0.11328564782115545     
  0.41230769230769232       0.16250000567029332       0.11370969305510763     
  0.41538461538461541       0.16250000798145800       0.11413214613550651     
  0.41846153846153844       0.16250001123463387       0.11455302465155974     
  0.42153846153846153       0.16250001581377627       0.11497234586974658     
  0.42461538461538462       0.16250002225933699       0.11539012674204707     
  0.42769230769230770       0.16250003133205013       0.11580638391390322     
  0.43076923076923079       0.16250004410271612       0.11622113373192305     
  0.43384615384615388       0.16250006207857948       0.11663439225133738     
  0.43692307692307697       0.16250008738121458       0.11704617524321907     
  0.44000000000000000       0.16250012299691091       0.11745649820147402     
  0.44307692307692309       0.16250017312910317       0.11786537634961231     
  0.44615384615384618       0.16250024369442806       0.11827282464730844     
  0.44923076923076921       0.16250034302092986       0.11867885779675801     
  0.45230769230769230       0.16250048283076762       0.11908349024883914     
  0.45538461538461539       0.16250067962330722       0.11948673620908537     
  0.45846153846153848       0.16250095662163377       0.11988860964347729     
  0.46153846153846156       0.16250134651182177       0.12028912428405979     
  0.46461538461538465       0.16250189529746892       0.12068829363439068     
  0.46769230769230768       0.16250266772285157       0.12108613097482761     
  0.47076923076923077       0.16250375490164981       0.12148264936765854     
  0.47384615384615386       0.16250528504544495       0.12187786166208149     
  0.47692307692307695       0.16250743854598837       0.12227178049903926     
  0.48000000000000004       0.16251046916711109       0.12266441831591378     
  0.48307692307692307       0.16251473379953019       0.12305578735108540     
  0.48615384615384616       0.16252073419558460       0.12344589964836178     
  0.48923076923076925       0.16252917542231565       0.12383476706128062     
  0.49230769230769234       0.16254104756194127       0.12422240125729106     
  0.49538461538461537       0.16255773957313630       0.12460881372181754     
  0.49846153846153846       0.16258119731652029       0.12499401576221025     
  0.50153846153846149       0.16261414157930684       0.12537801851158609     
  0.50461538461538469       0.16266036632760031       0.12576083293256368     
  0.50769230769230766       0.16272514169042759       0.12614246982089608     
  0.51076923076923075       0.16281574861178971       0.12652293980900475     
  0.51384615384615384       0.16294216895004743       0.12690225336941754     
  0.51692307692307693       0.16311793870690569       0.12728042081811439     
  0.52000000000000002       0.16336112989165527       0.12765745231778355     
  0.52307692307692311       0.16369533738744774       0.12803335788099132     
  0.52615384615384619       0.16415038384724775       0.12840814737326758     
  0.52923076923076917       0.16476219719977225       0.12878183051611095     
  0.53230769230769237       0.16557098586987606       0.12915441688991475     
  0.53538461538461535       0.16661658411692212       0.12952591593681737     
  0.53846153846153855       0.16793003130751008       0.12989633696347908     
  0.54153846153846152       0.16952164536897246       0.13026568914378717     
  0.54461538461538461       0.17136837188122608       0.13063398152149241     
  0.54769230769230770       0.17340615876332555       0.13100122301277842     
  0.55076923076923079       0.17553386307857230       0.13136742240876609     
  0.55384615384615388       0.17763101994464242       0.13173258837795537     
  0.55692307692307685       0.17958386175469451       0.13209672946860593     
  0.56000000000000005       0.18130840497152320       0.13245985411105868     
  0.56307692307692303       0.18276145986547523       0.13282197062000009     
  0.56615384615384623       0.18393808836986278       0.13318308719667094     
  0.56923076923076921       0.18486060772857615       0.13354321193102095     
  0.57230769230769230       0.18556575588880242       0.13390235280381127     
  0.57538461538461538       0.18609435712812794       0.13426051768866615     
  0.57846153846153847       0.18648485697933936       0.13461771435407496     
  0.58153846153846156       0.18677022797723938       0.13497395046534702     
  0.58461538461538465       0.18697712601824448       0.13532923358651933     
  0.58769230769230774       0.18712626954397621       0.13568357118221946     
  0.59076923076923071       0.18723333513481807       0.13603697061948475     
  0.59384615384615391       0.18730996546611087       0.13638943916953852     
  0.59692307692307689       0.18736469533619560       0.13674098400952528     
  0.60000000000000009       0.18740372419110174       0.13709161222420568     
  0.60307692307692307       0.18743152611079961       0.13744133080761226     
  0.60615384615384615       0.18745131526280154       0.13779014666466735     
  0.60923076923076924       0.18746539323120257       0.13813806661276404     
  0.61230769230769233       0.18747540434330512       0.13848509738331133     
  0.61538461538461542       0.18748252144934435       0.13883124562324414     
  0.61846153846153840       0.18748758014279468       0.13917651789649985     
  0.62153846153846160       0.18749117525150841       0.13952092068546126     
  0.62461538461538457       0.18749372996472649       0.13986446039236791     
  0.62769230769230777       0.18749554523520007       0.14020714334069606     
  0.63076923076923075       0.18749683502384237       0.14054897577650785     
  0.63384615384615384       0.18749775141340214       0.14088996386977162     
  0.63692307692307693       0.18749840248780153       0.14123011371565283     
  0.64000000000000001       0.18749886505328242       0.14156943133577718     
  0.64307692307692310       0.18749919368556212       0.14190792267946639     
  0.64615384615384619       0.18749942716209678       0.14224559362494749     
  0.64923076923076928       0.18749959303423011       0.14258244998053607     
  0.65230769230769226       0.18749971087663939       0.14291849748579460     
  0.65538461538461545       0.18749979459647534       0.14325374181266587     
  0.65846153846153843       0.18749985407416772       0.14358818856658265     
  0.66153846153846163       0.18749989632926750       0.14392184328755417     
  0.66461538461538461       0.18749992634878043       0.14425471145122970     
  0.66769230769230770       0.18749994767568312       0.14458679846994010     
  0.67076923076923078       0.18749996282704512       0.14491810969371779     
  0.67384615384615387       0.18749997359108703       0.14524865041129573     
  0.67692307692307696       0.18749998123822548       0.14557842585108569     
  0.67999999999999994       0.18749998667100942       0.14590744118213675     
  0.68307692307692314       0.18749999053064101       0.14623570151507445     
  0.68615384615384611       0.18749999327265215       0.14656321190302035     
  0.68923076923076931       0.18749999522066832       0.14688997734249384     
  0.69230769230769229       0.18749999660460390       0.14721600277429508     
  0.69538461538461538       0.18749999758779778       0.14754129308437089     
  0.69846153846153847       0.18749999828629141       0.14786585310466321     
  0.70153846153846144       0.18749999878252455       0.14818968761394063     
  0.70461538461538464       0.18749999913506504       0.14851280133861364     
  0.70769230769230762       0.18749999938552159       0.14883519895353398     
  0.71076923076923082       0.18749999956345426       0.14915688508277836     
  0.71384615384615380       0.18749999968986358       0.14947786430041649     
  0.71692307692307700       0.18749999977966905       0.14979814113126502     
  0.71999999999999997       0.18749999984346996       0.15011772005162627     
  0.72307692307692317       0.18749999988879640       0.15043660549001295     
  0.72615384615384615       0.18749999992099803       0.15075480182785922     
  0.72923076923076935       0.18749999994387542       0.15107231340021807     
  0.73230769230769233       0.18749999996012873       0.15138914449644517     
  0.73538461538461530       0.18749999997167624       0.15170529936087057     
  0.73846153846153850       0.18749999997988082       0.15202078219345694     
  0.74153846153846148       0.18749999998571085       0.15233559715044589     
  0.74461538461538468       0.18749999998985439       0.15264974834499231     
  0.74769230769230766       0.18749999999280048       0.15296323984778665     
  0.75076923076923086       0.18749999999489686       0.15327607568766602     
  0.75384615384615383       0.18749999999639094       0.15358825985221367     
  0.75692307692307703       0.18749999999745909       0.15389979628834774     
  0.76000000000000001       0.18749999999822733       0.15421068890289918     
  0.76307692307692299       0.18749999999878636       0.15452094156317911     
  0.76615384615384619       0.18749999999920214       0.15483055809753596     
  0.76923076923076916       0.18749999999952374       0.15513954229590243     
  0.77230769230769236       0.18749999999978914       0.15544789791033287     
  0.77538461538461534       0.18750000000002967       0.15575562865553061     
  0.77846153846153854       0.18750000000027370       0.15606273820936653     
  0.78153846153846152       0.18750000000055003       0.15636923021338758     
  0.78461538461538471       0.18750000000089129       0.15667510827331715     
  0.78769230769230769       0.18750000000133771       0.15698037595954589     
  0.79076923076923067       0.18750000000194206       0.15728503680761455     
  0.79384615384615387       0.18750000000277559       0.15758909431868784     
  0.79692307692307685       0.18750000000393671       0.15789255196002033     
  0.80000000000000004       0.18750000000556247       0.15819541316541430     
  0.80307692307692302       0.18750000000784475       0.15849768133566927     
  0.80615384615384622       0.18750000001105291       0.15879935983902457     
  0.80923076923076920       0.18750000001556558       0.15910045201159331     
  0.81230769230769240       0.18750000002191539       0.15940096115778990     
  0.81538461538461537       0.18750000003085177       0.15970089055074946     
  0.81846153846153857       0.18750000004342943       0.16000024343274091     
  0.82153846153846155       0.18750000006113285       0.16029902301557225     
  0.82461538461538453       0.18750000008605150       0.16059723248098984     
  0.82769230769230773       0.18750000012112636       0.16089487498107022     
  0.83076923076923070       0.18750000017049717       0.16119195363860600     
  0.83384615384615390       0.18750000023999092       0.16148847154748497     
  0.83692307692307688       0.18750000033780961       0.16178443177306295     
  0.84000000000000008       0.18750000047549831       0.16207983735253079     
  0.84307692307692306       0.18750000066930772       0.16237469129527479     
  0.84615384615384626       0.18750000094211219       0.16266899658323164     
  0.84923076923076923       0.18750000132610956       0.16296275617123746     
  0.85230769230769221       0.18750000186662102       0.16325597298737107     
  0.85538461538461541       0.18750000262744052       0.16354864993329168     
  0.85846153846153839       0.18750000369836378       0.16384078988457129     
  0.86153846153846159       0.18750000520578644       0.16413239569102148     
  0.86461538461538456       0.18750000732762201       0.16442347017701520     
  0.86769230769230776       0.18750001031429986       0.16471401614180331     
  0.87076923076923074       0.18750001451832204       0.16500403635982588     
  0.87384615384615394       0.18750002043586708       0.16529353358101906     
  0.87692307692307692       0.18750002876535055       0.16558251053111636     
  0.88000000000000012       0.18750004048985422       0.16587096991194600     
  0.88307692307692309       0.18750005699315150       0.16615891440172281     
  0.88615384615384607       0.18750008022302145       0.16644634665533617     
  0.88923076923076927       0.18750011292112409       0.16673326930463306     
  0.89230769230769225       0.18750015894656222       0.16701968495869685     
  0.89538461538461545       0.18750022373130701       0.16730559620412189     
  0.89846153846153842       0.18750031492121733       0.16759100560528356     
  0.90153846153846162       0.18750044327826534       0.16787591570460447     
  0.90461538461538460       0.18750062395036765       0.16816032902281633     
  0.90769230769230780       0.18750087825852285       0.16844424805921809     
  0.91076923076923078       0.18750123621184456       0.16872767529192981     
  0.91384615384615375       0.18750174004665643       0.16901061317814298     
  0.91692307692307695       0.18750244920602360       0.16929306415436682     
  0.91999999999999993       0.18750344734480040       0.16957503063667095     
  0.92307692307692313       0.18750485218175764       0.16985651502092458     
  0.92615384615384611       0.18750682935127486       0.17013751968303187     
  0.92923076923076930       0.18750961186902815       0.17041804697916374     
  0.93230769230769228       0.18751352746870759       0.17069809924598647     
  0.93538461538461548       0.18751903695625524       0.17097767880088693     
  0.93846153846153846       0.18752678795038047       0.17125678794219407     
  0.94153846153846166       0.18753769004001433       0.17153542894939761     
  0.94461538461538463       0.18755301961362081       0.17181360408336316     
  0.94769230769230761       0.18757456552090959       0.17209131558654453     
  0.95076923076923081       0.18760483037864389       0.17236856568319275     
  0.95384615384615379       0.18764730662266607       0.17264535657956187     
  0.95692307692307699       0.18770685082159996       0.17292169046411215     
  0.95999999999999996       0.18779018291113261       0.17319756950771001     
  0.96307692307692316       0.18790653576286251       0.17347299586382545     
  0.96615384615384614       0.18806846860457252       0.17374797166872605     
  0.96923076923076934       0.18829282378758366       0.17402249904166886     
  0.97230769230769232       0.18860173139316586       0.17429658008508905     
