      radius         M_x     M_theta  A_expected    A_actual
     0.20000     0.04493     0.36408     0.94924     0.94924
     0.20312     0.04507     0.36615     0.94963     0.94963
     0.20625     0.04521     0.36818     0.95002     0.95002
     0.20937     0.04536     0.37017     0.95041     0.95041
     0.21250     0.04550     0.37214     0.95080     0.95080
     0.21562     0.04564     0.37407     0.95118     0.95118
     0.21875     0.04578     0.37597     0.95157     0.95157
     0.22187     0.04593     0.37783     0.95195     0.95195
     0.22500     0.04607     0.37967     0.95233     0.95233
     0.22812     0.04621     0.38147     0.95271     0.95271
     0.23125     0.04636     0.38325     0.95309     0.95309
     0.23437     0.04650     0.38499     0.95347     0.95347
     0.23750     0.04665     0.38671     0.95385     0.95385
     0.24062     0.04680     0.38839     0.95422     0.95422
     0.24375     0.04694     0.39005     0.95459     0.95459
     0.24687     0.04709     0.39168     0.95497     0.95497
     0.25000     0.04724     0.39328     0.95534     0.95534
     0.25312     0.04738     0.39485     0.95571     0.95571
     0.25625     0.04753     0.39640     0.95607     0.95607
     0.25937     0.04768     0.39792     0.95644     0.95644
     0.26250     0.04783     0.39941     0.95680     0.95680
     0.26562     0.04798     0.40088     0.95716     0.95716
     0.26875     0.04813     0.40232     0.95753     0.95753
     0.27187     0.04828     0.40374     0.95789     0.95789
     0.27500     0.04843     0.40513     0.95824     0.95824
     0.27812     0.04858     0.40649     0.95860     0.95860
     0.28125     0.04874     0.40783     0.95896     0.95896
     0.28437     0.04889     0.40915     0.95931     0.95931
     0.28750     0.04904     0.41044     0.95966     0.95966
     0.29062     0.04920     0.41171     0.96001     0.96001
     0.29375     0.04935     0.41295     0.96036     0.96036
     0.29687     0.04950     0.41417     0.96071     0.96071
     0.30000     0.04966     0.41537     0.96106     0.96106
     0.30312     0.04981     0.41654     0.96140     0.96140
     0.30625     0.04997     0.41770     0.96174     0.96174
     0.30937     0.05013     0.41883     0.96209     0.96209
     0.31250     0.05028     0.41993     0.96243     0.96243
     0.31562     0.05044     0.42102     0.96276     0.96276
     0.31875     0.05060     0.42208     0.96310     0.96310
     0.32187     0.05076     0.42312     0.96344     0.96344
     0.32500     0.05092     0.42414     0.96377     0.96377
     0.32812     0.05108     0.42513     0.96410     0.96410
     0.33125     0.05123     0.42611     0.96443     0.96443
     0.33437     0.05140     0.42707     0.96476     0.96476
     0.33750     0.05156     0.42800     0.96509     0.96509
     0.34062     0.05172     0.42891     0.96542     0.96542
     0.34375     0.05188     0.42980     0.96574     0.96574
     0.34687     0.05204     0.43068     0.96607     0.96607
     0.35000     0.05220     0.43153     0.96639     0.96639
     0.35312     0.05237     0.43236     0.96671     0.96671
     0.35625     0.05253     0.43317     0.96703     0.96703
     0.35937     0.05270     0.43396     0.96735     0.96735
     0.36250     0.05286     0.43473     0.96766     0.96766
     0.36562     0.05303     0.43548     0.96798     0.96798
     0.36875     0.05319     0.43621     0.96829     0.96829
     0.37187     0.05336     0.43692     0.96860     0.96860
     0.37500     0.05353     0.43761     0.96891     0.96891
     0.37812     0.05369     0.43829     0.96922     0.96922
     0.38125     0.05386     0.43894     0.96953     0.96953
     0.38437     0.05403     0.43958     0.96983     0.96983
     0.38750     0.05420     0.44019     0.97014     0.97014
     0.39062     0.05437     0.44079     0.97044     0.97044
     0.39375     0.05454     0.44136     0.97074     0.97074
     0.39687     0.05471     0.44192     0.97104     0.97104
     0.40000     0.05488     0.44246     0.97134     0.97134
     0.40312     0.05505     0.44298     0.97163     0.97163
     0.40625     0.05523     0.44349     0.97193     0.97193
     0.40937     0.05540     0.44397     0.97222     0.97222
     0.41250     0.05557     0.44444     0.97251     0.97251
     0.41562     0.05575     0.44488     0.97280     0.97280
     0.41875     0.05592     0.44531     0.97309     0.97309
     0.42187     0.05609     0.44573     0.97338     0.97338
     0.42500     0.05627     0.44612     0.97367     0.97367
     0.42812     0.05645     0.44649     0.97395     0.97395
     0.43125     0.05662     0.44685     0.97423     0.97423
     0.43437     0.05680     0.44719     0.97451     0.97451
     0.43750     0.05698     0.44751     0.97479     0.97479
     0.44062     0.05716     0.44781     0.97507     0.97507
     0.44375     0.05734     0.44810     0.97535     0.97535
     0.44687     0.05751     0.44837     0.97562     0.97562
     0.45000     0.05769     0.44862     0.97590     0.97590
     0.45312     0.05788     0.44885     0.97617     0.97617
     0.45625     0.05806     0.44906     0.97644     0.97644
     0.45937     0.05824     0.44926     0.97671     0.97671
     0.46250     0.05842     0.44944     0.97698     0.97698
     0.46562     0.05860     0.44960     0.97724     0.97724
     0.46875     0.05879     0.44975     0.97751     0.97751
     0.47187     0.05897     0.44987     0.97777     0.97777
     0.47500     0.05916     0.44998     0.97803     0.97803
     0.47812     0.05934     0.45008     0.97829     0.97829
     0.48125     0.05953     0.45015     0.97855     0.97855
     0.48437     0.05971     0.45021     0.97881     0.97881
     0.48750     0.05990     0.45025     0.97906     0.97906
     0.49062     0.06009     0.45027     0.97931     0.97931
     0.49375     0.06028     0.45028     0.97957     0.97957
     0.49687     0.06046     0.45026     0.97982     0.97982
     0.50000     0.06065     0.45023     0.98007     0.98007
     0.50312     0.06084     0.45019     0.98031     0.98031
     0.50625     0.06103     0.45012     0.98056     0.98056
     0.50937     0.06122     0.45004     0.98080     0.98080
     0.51250     0.06142     0.44994     0.98105     0.98105
     0.51562     0.06161     0.44983     0.98129     0.98129
     0.51875     0.06180     0.44969     0.98153     0.98153
     0.52187     0.06199     0.44954     0.98177     0.98177
     0.52500     0.06219     0.44937     0.98200     0.98200
     0.52812     0.06238     0.44919     0.98224     0.98224
     0.53125     0.06258     0.44898     0.98247     0.98247
     0.53437     0.06277     0.44876     0.98271     0.98271
     0.53750     0.06297     0.44853     0.98294     0.98294
     0.54062     0.06317     0.44827     0.98317     0.98317
     0.54375     0.06337     0.44800     0.98339     0.98339
     0.54687     0.06356     0.44771     0.98362     0.98362
     0.55000     0.06376     0.44740     0.98384     0.98384
     0.55312     0.06396     0.44707     0.98407     0.98407
     0.55625     0.06416     0.44673     0.98429     0.98429
     0.55937     0.06436     0.44637     0.98451     0.98451
     0.56250     0.06456     0.44599     0.98473     0.98473
     0.56562     0.06477     0.44560     0.98494     0.98494
     0.56875     0.06497     0.44518     0.98516     0.98516
     0.57187     0.06517     0.44475     0.98537     0.98537
     0.57500     0.06538     0.44430     0.98558     0.98558
     0.57812     0.06558     0.44384     0.98580     0.98580
     0.58125     0.06579     0.44335     0.98600     0.98600
     0.58437     0.06599     0.44285     0.98621     0.98621
     0.58750     0.06620     0.44233     0.98642     0.98642
     0.59062     0.06641     0.44179     0.98662     0.98662
     0.59375     0.06661     0.44123     0.98683     0.98683
     0.59687     0.06682     0.44066     0.98703     0.98703
     0.60000     0.06703     0.44006     0.98723     0.98723
     0.60312     0.06724     0.43945     0.98743     0.98743
     0.60625     0.06745     0.43882     0.98762     0.98762
     0.60938     0.06766     0.43817     0.98782     0.98782
     0.61250     0.06788     0.43750     0.98801     0.98801
     0.61562     0.06809     0.43682     0.98820     0.98820
     0.61875     0.06830     0.43611     0.98839     0.98839
     0.62187     0.06851     0.43539     0.98858     0.98858
     0.62500     0.06873     0.43465     0.98877     0.98877
     0.62812     0.06894     0.43389     0.98896     0.98896
     0.63125     0.06916     0.43311     0.98914     0.98914
     0.63437     0.06938     0.43231     0.98932     0.98932
     0.63750     0.06959     0.43149     0.98951     0.98951
     0.64062     0.06981     0.43065     0.98969     0.98969
     0.64375     0.07003     0.42979     0.98986     0.98986
     0.64687     0.07025     0.42891     0.99004     0.99004
     0.65000     0.07047     0.42802     0.99022     0.99022
     0.65312     0.07069     0.42710     0.99039     0.99039
     0.65625     0.07091     0.42616     0.99056     0.99056
     0.65937     0.07113     0.42521     0.99073     0.99073
     0.66250     0.07136     0.42423     0.99090     0.99090
     0.66562     0.07158     0.42323     0.99107     0.99107
     0.66875     0.07180     0.42221     0.99123     0.99123
     0.67188     0.07203     0.42117     0.99140     0.99140
     0.67500     0.07225     0.42011     0.99156     0.99156
     0.67812     0.07248     0.41903     0.99172     0.99172
     0.68125     0.07271     0.41793     0.99188     0.99188
     0.68437     0.07293     0.41681     0.99204     0.99204
     0.68750     0.07316     0.41566     0.99220     0.99220
     0.69062     0.07339     0.41450     0.99235     0.99235
     0.69375     0.07362     0.41331     0.99251     0.99251
     0.69687     0.07385     0.41210     0.99266     0.99266
     0.70000     0.07408     0.41087     0.99281     0.99281
     0.70312     0.07431     0.40961     0.99296     0.99296
     0.70625     0.07455     0.40833     0.99310     0.99310
     0.70937     0.07478     0.40703     0.99325     0.99325
     0.71250     0.07501     0.40571     0.99339     0.99339
     0.71562     0.07525     0.40436     0.99354     0.99354
     0.71875     0.07548     0.40299     0.99368     0.99368
     0.72187     0.07572     0.40160     0.99382     0.99382
     0.72500     0.07596     0.40018     0.99396     0.99396
     0.72812     0.07619     0.39874     0.99409     0.99409
     0.73125     0.07643     0.39727     0.99423     0.99423
     0.73438     0.07667     0.39578     0.99436     0.99436
     0.73750     0.07691     0.39427     0.99449     0.99449
     0.74062     0.07715     0.39273     0.99462     0.99462
     0.74375     0.07739     0.39116     0.99475     0.99475
     0.74687     0.07764     0.38957     0.99488     0.99488
     0.75000     0.07788     0.38795     0.99500     0.99500
     0.75312     0.07812     0.38630     0.99513     0.99513
     0.75625     0.07837     0.38463     0.99525     0.99525
     0.75937     0.07861     0.38293     0.99537     0.99537
     0.76250     0.07886     0.38120     0.99549     0.99549
     0.76562     0.07911     0.37944     0.99561     0.99561
     0.76875     0.07935     0.37766     0.99572     0.99572
     0.77187     0.07960     0.37585     0.99584     0.99584
     0.77500     0.07985     0.37400     0.99595     0.99595
     0.77812     0.08010     0.37213     0.99606     0.99606
     0.78125     0.08035     0.37023     0.99617     0.99617
     0.78437     0.08060     0.36829     0.99628     0.99628
     0.78750     0.08086     0.36633     0.99639     0.99639
     0.79062     0.08111     0.36434     0.99650     0.99650
     0.79375     0.08136     0.36231     0.99660     0.99660
     0.79688     0.08162     0.36025     0.99670     0.99670
     0.80000     0.08187     0.35815     0.99680     0.99680
     0.80313     0.08213     0.35603     0.99690     0.99690
     0.80625     0.08239     0.35386     0.99700     0.99700
     0.80938     0.08264     0.35167     0.99709     0.99709
     0.81250     0.08290     0.34943     0.99719     0.99719
     0.81563     0.08316     0.34716     0.99728     0.99728
     0.81875     0.08342     0.34486     0.99737     0.99737
     0.82188     0.08368     0.34251     0.99746     0.99746
     0.82500     0.08395     0.34013     0.99755     0.99755
     0.82812     0.08421     0.33771     0.99764     0.99764
     0.83125     0.08447     0.33525     0.99772     0.99772
     0.83438     0.08474     0.33274     0.99781     0.99781
     0.83750     0.08500     0.33019     0.99789     0.99789
     0.84063     0.08527     0.32761     0.99797     0.99797
     0.84375     0.08553     0.32497     0.99805     0.99805
     0.84688     0.08580     0.32229     0.99812     0.99812
     0.85000     0.08607     0.31957     0.99820     0.99820
     0.85313     0.08634     0.31679     0.99827     0.99827
     0.85625     0.08661     0.31397     0.99835     0.99835
     0.85938     0.08688     0.31110     0.99842     0.99842
     0.86250     0.08715     0.30817     0.99849     0.99849
     0.86563     0.08743     0.30520     0.99856     0.99856
     0.86875     0.08770     0.30216     0.99862     0.99862
     0.87188     0.08797     0.29907     0.99869     0.99869
     0.87500     0.08825     0.29593     0.99875     0.99875
     0.87813     0.08853     0.29272     0.99881     0.99881
     0.88125     0.08880     0.28945     0.99887     0.99887
     0.88438     0.08908     0.28612     0.99893     0.99893
     0.88750     0.08936     0.28272     0.99899     0.99899
     0.89062     0.08964     0.27925     0.99904     0.99904
     0.89375     0.08992     0.27571     0.99910     0.99910
     0.89688     0.09020     0.27209     0.99915     0.99915
     0.90000     0.09048     0.26840     0.99920     0.99920
     0.90313     0.09077     0.26463     0.99925     0.99925
     0.90625     0.09105     0.26077     0.99930     0.99930
     0.90938     0.09134     0.25682     0.99934     0.99934
     0.91250     0.09162     0.25279     0.99939     0.99939
     0.91563     0.09191     0.24865     0.99943     0.99943
     0.91875     0.09220     0.24442     0.99947     0.99947
     0.92188     0.09248     0.24007     0.99951     0.99951
     0.92500     0.09277     0.23562     0.99955     0.99955
     0.92813     0.09306     0.23105     0.99959     0.99959
     0.93125     0.09336     0.22634     0.99962     0.99962
     0.93438     0.09365     0.22151     0.99966     0.99966
     0.93750     0.09394     0.21653     0.99969     0.99969
     0.94063     0.09424     0.21140     0.99972     0.99972
     0.94375     0.09453     0.20610     0.99975     0.99975
     0.94688     0.09483     0.20062     0.99977     0.99977
     0.95000     0.09512     0.19495     0.99980     0.99980
     0.95312     0.09542     0.18907     0.99982     0.99982
     0.95625     0.09572     0.18295     0.99985     0.99985
     0.95938     0.09602     0.17659     0.99987     0.99987
     0.96250     0.09632     0.16993     0.99989     0.99989
     0.96563     0.09662     0.16296     0.99991     0.99991
     0.96875     0.09692     0.15563     0.99992     0.99992
     0.97188     0.09723     0.14788     0.99994     0.99994
     0.97500     0.09753     0.13964     0.99995     0.99995
     0.97813     0.09784     0.13083     0.99996     0.99996
     0.98125     0.09814     0.12132     0.99997     0.99997
     0.98438     0.09845     0.11093     0.99998     0.99998
     0.98750     0.09876     0.09937     0.99999     0.99999
     0.99063     0.09907     0.08620     0.99999     0.99999
     0.99375     0.09938     0.07049     1.00000     1.00000
     0.99688     0.09969     0.04992     1.00000     1.00000
     1.00000     0.10000    -0.00000     1.00000     1.00000
