             radius   SpeedofSoundError            Expected              Actual 
      0.100000000000     -0.000000003074      0.938638682945      0.938638686019
      0.101757812500     -0.000000003068      0.938756817955      0.938756821023
      0.103515625000     -0.000000003062      0.938874972834      0.938874975897
      0.105273437500     -0.000000003056      0.938993147510      0.938993150566
      0.107031250000     -0.000000003050      0.939111341907      0.939111344958
      0.108789062500     -0.000000003044      0.939229555954      0.939229558998
      0.110546875000     -0.000000003038      0.939347789575      0.939347792613
      0.112304687500     -0.000000003032      0.939466042698      0.939466045730
      0.114062500000     -0.000000003026      0.939584315247      0.939584318273
      0.115820312500     -0.000000003020      0.939702607151      0.939702610171
      0.117578125000     -0.000000003014      0.939820918334      0.939820921348
      0.119335937500     -0.000000003008      0.939939248722      0.939939251730
      0.121093750000     -0.000000003002      0.940057598242      0.940057601244
      0.122851562500     -0.000000002996      0.940175966820      0.940175969816
      0.124609375000     -0.000000002990      0.940294354381      0.940294357371
      0.126367187500     -0.000000002983      0.940412760852      0.940412763835
      0.128125000000     -0.000000002977      0.940531186157      0.940531189134
      0.129882812500     -0.000000002971      0.940649630223      0.940649633195
      0.131640625000     -0.000000002965      0.940768092976      0.940768095941
      0.133398437500     -0.000000002959      0.940886574341      0.940886577300
      0.135156250000     -0.000000002953      0.941005074244      0.941005077197
      0.136914062500     -0.000000002947      0.941123592610      0.941123595557
      0.138671875000     -0.000000002941      0.941242129365      0.941242132306
      0.140429687500     -0.000000002935      0.941360684434      0.941360687369
      0.142187500000     -0.000000002929      0.941479257743      0.941479260672
      0.143945312500     -0.000000002922      0.941597849217      0.941597852140
      0.145703125000     -0.000000002916      0.941716458782      0.941716461698
      0.147460937500     -0.000000002910      0.941835086362      0.941835089272
      0.149218750000     -0.000000002904      0.941953731883      0.941953734787
      0.150976562500     -0.000000002898      0.942072395270      0.942072398168
      0.152734375000     -0.000000002892      0.942191076448      0.942191079340
      0.154492187500     -0.000000002886      0.942309775343      0.942309778229
      0.156250000000     -0.000000002880      0.942428491879      0.942428494759
      0.158007812500     -0.000000002873      0.942547225982      0.942547228855
      0.159765625000     -0.000000002867      0.942665977576      0.942665980443
      0.161523437500     -0.000000002861      0.942784746586      0.942784749447
      0.163281250000     -0.000000002855      0.942903532938      0.942903535793
      0.165039062500     -0.000000002849      0.943022336555      0.943022339404
      0.166796875000     -0.000000002843      0.943141157363      0.943141160206
      0.168554687500     -0.000000002837      0.943259995287      0.943259998123
      0.170312500000     -0.000000002830      0.943378850251      0.943378853081
      0.172070312500     -0.000000002824      0.943497722179      0.943497725004
      0.173828125000     -0.000000002818      0.943616610998      0.943616613816
      0.175585937500     -0.000000002812      0.943735516630      0.943735519442
      0.177343750000     -0.000000002806      0.943854439001      0.943854441806
      0.179101562500     -0.000000002800      0.943973378034      0.943973380834
      0.180859375000     -0.000000002794      0.944092333656      0.944092336449
      0.182617187500     -0.000000002787      0.944211305789      0.944211308576
      0.184375000000     -0.000000002781      0.944330294358      0.944330297139
      0.186132812500     -0.000000002775      0.944449299288      0.944449302063
      0.187890625000     -0.000000002769      0.944568320503      0.944568323272
      0.189648437500     -0.000000002763      0.944687357927      0.944687360689
      0.191406250000     -0.000000002757      0.944806411484      0.944806414240
      0.193164062500     -0.000000002750      0.944925481098      0.944925483848
      0.194921875000     -0.000000002744      0.945044566694      0.945044569438
      0.196679687500     -0.000000002738      0.945163668195      0.945163670933
      0.198437500000     -0.000000002732      0.945282785526      0.945282788258
      0.200195312500     -0.000000002726      0.945401918610      0.945401921336
      0.201953125000     -0.000000002720      0.945521067372      0.945521070092
      0.203710937500     -0.000000002713      0.945640231736      0.945640234449
      0.205468750000     -0.000000002707      0.945759411624      0.945759414331
      0.207226562500     -0.000000002701      0.945878606962      0.945878609663
      0.208984375000     -0.000000002695      0.945997817672      0.945997820367
      0.210742187500     -0.000000002689      0.946117043679      0.946117046368
      0.212500000000     -0.000000002682      0.946236284906      0.946236287589
      0.214257812500     -0.000000002676      0.946355541278      0.946355543954
      0.216015625000     -0.000000002670      0.946474812716      0.946474815386
      0.217773437500     -0.000000002664      0.946594099146      0.946594101810
      0.219531250000     -0.000000002658      0.946713400491      0.946713403149
      0.221289062500     -0.000000002652      0.946832716674      0.946832719326
      0.223046875000     -0.000000002645      0.946952047619      0.946952050264
      0.224804687500     -0.000000002639      0.947071393248      0.947071395887
      0.226562500000     -0.000000002633      0.947190753487      0.947190756120
      0.228320312500     -0.000000002627      0.947310128257      0.947310130884
      0.230078125000     -0.000000002621      0.947429517482      0.947429520103
      0.231835937500     -0.000000002614      0.947548921086      0.947548923700
      0.233593750000     -0.000000002608      0.947668338992      0.947668341600
      0.235351562500     -0.000000002602      0.947787771122      0.947787773724
      0.237109375000     -0.000000002596      0.947907217401      0.947907219997
      0.238867187500     -0.000000002590      0.948026677751      0.948026680340
      0.240625000000     -0.000000002583      0.948146152095      0.948146154678
      0.242382812500     -0.000000002577      0.948265640357      0.948265642934
      0.244140625000     -0.000000002571      0.948385142459      0.948385145030
      0.245898437500     -0.000000002565      0.948504658325      0.948504660889
      0.247656250000     -0.000000002558      0.948624187877      0.948624190435
      0.249414062500     -0.000000002552      0.948743731038      0.948743733590
      0.251171875000     -0.000000002546      0.948863287732      0.948863290278
      0.252929687500     -0.000000002540      0.948982857880      0.948982860420
      0.254687500000     -0.000000002534      0.949102441407      0.949102443940
      0.256445312500     -0.000000002527      0.949222038234      0.949222040761
      0.258203125000     -0.000000002521      0.949341648285      0.949341650806
      0.259960937500     -0.000000002515      0.949461271482      0.949461273996
      0.261718750000     -0.000000002509      0.949580907747      0.949580910256
      0.263476562500     -0.000000002502      0.949700557004      0.949700559507
      0.265234375000     -0.000000002496      0.949820219176      0.949820221672
      0.266992187500     -0.000000002490      0.949939894183      0.949939896674
      0.268750000000     -0.000000002484      0.950059581951      0.950059584434
      0.270507812500     -0.000000002478      0.950179282399      0.950179284877
      0.272265625000     -0.000000002471      0.950298995453      0.950298997924
      0.274023437500     -0.000000002465      0.950418721032      0.950418723497
      0.275781250000     -0.000000002459      0.950538459061      0.950538461520
      0.277539062500     -0.000000002453      0.950658209462      0.950658211914
      0.279296875000     -0.000000002446      0.950777972156      0.950777974602
      0.281054687500     -0.000000002440      0.950897747066      0.950897749506
      0.282812500000     -0.000000002434      0.951017534115      0.951017536549
      0.284570312500     -0.000000002428      0.951137333224      0.951137335652
      0.286328125000     -0.000000002421      0.951257144317      0.951257146738
      0.288085937500     -0.000000002415      0.951376967314      0.951376969729
      0.289843750000     -0.000000002409      0.951496802139      0.951496804548
      0.291601562500     -0.000000002403      0.951616648713      0.951616651116
      0.293359375000     -0.000000002397      0.951736506959      0.951736509356
      0.295117187500     -0.000000002390      0.951856376799      0.951856379189
      0.296875000000     -0.000000002384      0.951976258154      0.951976260538
      0.298632812500     -0.000000002378      0.952096150947      0.952096153324
      0.300390625000     -0.000000002372      0.952216055099      0.952216057471
      0.302148437500     -0.000000002365      0.952335970533      0.952335972898
      0.303906250000     -0.000000002359      0.952455897171      0.952455899530
      0.305664062500     -0.000000002353      0.952575834934      0.952575837287
      0.307421875000     -0.000000002347      0.952695783744      0.952695786091
      0.309179687500     -0.000000002340      0.952815743524      0.952815745864
      0.310937500000     -0.000000002334      0.952935714194      0.952935716528
      0.312695312500     -0.000000002328      0.953055695678      0.953055698005
      0.314453125000     -0.000000002322      0.953175687896      0.953175690217
      0.316210937500     -0.000000002315      0.953295690770      0.953295693085
      0.317968750000     -0.000000002309      0.953415704222      0.953415706531
      0.319726562500     -0.000000002303      0.953535728173      0.953535730476
      0.321484375000     -0.000000002297      0.953655762546      0.953655764843
      0.323242187500     -0.000000002290      0.953775807262      0.953775809552
      0.325000000000     -0.000000002284      0.953895862242      0.953895864526
      0.326757812500     -0.000000002278      0.954015927409      0.954015929687
      0.328515625000     -0.000000002272      0.954136002683      0.954136004954
      0.330273437500     -0.000000002265      0.954256087986      0.954256090251
      0.332031250000     -0.000000002259      0.954376183239      0.954376185499
      0.333789062500     -0.000000002253      0.954496288365      0.954496290618
      0.335546875000     -0.000000002247      0.954616403284      0.954616405531
      0.337304687500     -0.000000002240      0.954736527919      0.954736530159
      0.339062500000     -0.000000002234      0.954856662189      0.954856664423
      0.340820312500     -0.000000002228      0.954976806017      0.954976808245
      0.342578125000     -0.000000002222      0.955096959324      0.955096961546
      0.344335937500     -0.000000002215      0.955217122032      0.955217124247
      0.346093750000     -0.000000002209      0.955337294061      0.955337296270
      0.347851562500     -0.000000002203      0.955457475333      0.955457477535
      0.349609375000     -0.000000002196      0.955577665768      0.955577667965
      0.351367187500     -0.000000002190      0.955697865290      0.955697867480
      0.353125000000     -0.000000002184      0.955818073817      0.955818076001
      0.354882812500     -0.000000002178      0.955938291273      0.955938293451
      0.356640625000     -0.000000002171      0.956058517577      0.956058519749
      0.358398437500     -0.000000002165      0.956178752651      0.956178754817
      0.360156250000     -0.000000002159      0.956298996417      0.956298998576
      0.361914062500     -0.000000002153      0.956419248794      0.956419250947
      0.363671875000     -0.000000002146      0.956539509705      0.956539511851
      0.365429687500     -0.000000002140      0.956659779069      0.956659781210
      0.367187500000     -0.000000002134      0.956780056809      0.956780058943
      0.368945312500     -0.000000002128      0.956900342846      0.956900344973
      0.370703125000     -0.000000002121      0.957020637099      0.957020639220
      0.372460937500     -0.000000002115      0.957140939490      0.957140941606
      0.374218750000     -0.000000002109      0.957261249941      0.957261252050
      0.375976562500     -0.000000002103      0.957381568371      0.957381570474
      0.377734375000     -0.000000002096      0.957501894703      0.957501896799
      0.379492187500     -0.000000002090      0.957622228856      0.957622230946
      0.381250000000     -0.000000002084      0.957742570751      0.957742572835
      0.383007812500     -0.000000002078      0.957862920310      0.957862922388
      0.384765625000     -0.000000002071      0.957983277454      0.957983279525
      0.386523437500     -0.000000002065      0.958103642102      0.958103644167
      0.388281250000     -0.000000002059      0.958224014175      0.958224016234
      0.390039062500     -0.000000002052      0.958344393596      0.958344395648
      0.391796875000     -0.000000002046      0.958464780283      0.958464782329
      0.393554687500     -0.000000002040      0.958585174158      0.958585176198
      0.395312500000     -0.000000002034      0.958705575142      0.958705577176
      0.397070312500     -0.000000002027      0.958825983155      0.958825985183
      0.398828125000     -0.000000002021      0.958946398119      0.958946400140
      0.400585937500     -0.000000002015      0.959066819952      0.959066821967
      0.402343750000     -0.000000002009      0.959187248577      0.959187250586
      0.404101562500     -0.000000002002      0.959307683913      0.959307685916
      0.405859375000     -0.000000001996      0.959428125882      0.959428127878
      0.407617187500     -0.000000001990      0.959548574404      0.959548576394
      0.409375000000     -0.000000001984      0.959669029399      0.959669031383
      0.411132812500     -0.000000001977      0.959789490788      0.959789492765
      0.412890625000     -0.000000001971      0.959909958492      0.959909960463
      0.414648437500     -0.000000001965      0.960030432430      0.960030434395
      0.416406250000     -0.000000001959      0.960150912524      0.960150914483
      0.418164062500     -0.000000001952      0.960271398694      0.960271400646
      0.419921875000     -0.000000001946      0.960391890860      0.960391892806
      0.421679687500     -0.000000001940      0.960512388943      0.960512390883
      0.423437500000     -0.000000001934      0.960632892863      0.960632894797
      0.425195312500     -0.000000001927      0.960753402541      0.960753404469
      0.426953125000     -0.000000001921      0.960873917897      0.960873919818
      0.428710937500     -0.000000001915      0.960994438851      0.960994440766
      0.430468750000     -0.000000001909      0.961114965324      0.961114967233
      0.432226562500     -0.000000001902      0.961235497236      0.961235499138
      0.433984375000     -0.000000001896      0.961356034507      0.961356036404
      0.435742187500     -0.000000001890      0.961476577059      0.961476578948
      0.437500000000     -0.000000001884      0.961597124810      0.961597126693
      0.439257812500     -0.000000001877      0.961717677681      0.961717679558
      0.441015625000     -0.000000001871      0.961838235593      0.961838237464
      0.442773437500     -0.000000001865      0.961958798466      0.961958800330
      0.444531250000     -0.000000001859      0.962079366220      0.962079368078
      0.446289062500     -0.000000001852      0.962199938775      0.962199940627
      0.448046875000     -0.000000001846      0.962320516051      0.962320517897
      0.449804687500     -0.000000001840      0.962441097970      0.962441099810
      0.451562500000     -0.000000001834      0.962561684450      0.962561686284
      0.453320312500     -0.000000001827      0.962682275413      0.962682277240
      0.455078125000     -0.000000001821      0.962802870778      0.962802872599
      0.456835937500     -0.000000001815      0.962923470465      0.962923472280
      0.458593750000     -0.000000001809      0.963044074395      0.963044076203
      0.460351562500     -0.000000001802      0.963164682487      0.963164684290
      0.462109375000     -0.000000001796      0.963285294663      0.963285296459
      0.463867187500     -0.000000001790      0.963405910841      0.963405912631
      0.465625000000     -0.000000001784      0.963526530943      0.963526532727
      0.467382812500     -0.000000001777      0.963647154888      0.963647156665
      0.469140625000     -0.000000001771      0.963767782596      0.963767784367
      0.470898437500     -0.000000001765      0.963888413988      0.963888415753
      0.472656250000     -0.000000001759      0.964009048983      0.964009050741
      0.474414062500     -0.000000001752      0.964129687501      0.964129689254
      0.476171875000     -0.000000001746      0.964250329463      0.964250331210
      0.477929687500     -0.000000001740      0.964370974789      0.964370976529
      0.479687500000     -0.000000001734      0.964491623398      0.964491625132
      0.481445312500     -0.000000001727      0.964612275211      0.964612276939
      0.483203125000     -0.000000001721      0.964732930148      0.964732931869
      0.484960937500     -0.000000001715      0.964853588128      0.964853589843
      0.486718750000     -0.000000001709      0.964974249072      0.964974250781
      0.488476562500     -0.000000001703      0.965094912900      0.965094914603
      0.490234375000     -0.000000001696      0.965215579532      0.965215581228
      0.491992187500     -0.000000001690      0.965336248887      0.965336250577
      0.493750000000     -0.000000001684      0.965456920885      0.965456922569
      0.495507812500     -0.000000001678      0.965577595447      0.965577597125
      0.497265625000     -0.000000001671      0.965698272493      0.965698274164
      0.499023437500     -0.000000001665      0.965818951942      0.965818953607
      0.500781250000     -0.000000001659      0.965939633715      0.965939635374
      0.502539062500     -0.000000001653      0.966060317731      0.966060319383
      0.504296875000     -0.000000001647      0.966181003910      0.966181005556
      0.506054687500     -0.000000001640      0.966301692172      0.966301693813
      0.507812500000     -0.000000001634      0.966422382438      0.966422384072
      0.509570312500     -0.000000001628      0.966543074627      0.966543076255
      0.511328125000     -0.000000001622      0.966663768658      0.966663770280
      0.513085937500     -0.000000001615      0.966784464453      0.966784466068
      0.514843750000     -0.000000001609      0.966905161930      0.966905163539
      0.516601562500     -0.000000001603      0.967025861010      0.967025862613
      0.518359375000     -0.000000001597      0.967146561612      0.967146563209
      0.520117187500     -0.000000001591      0.967267263657      0.967267265248
      0.521875000000     -0.000000001584      0.967387967065      0.967387968649
      0.523632812500     -0.000000001578      0.967508671754      0.967508673332
      0.525390625000     -0.000000001572      0.967629377646      0.967629379218
      0.527148437500     -0.000000001566      0.967750084659      0.967750086225
      0.528906250000     -0.000000001560      0.967870792715      0.967870794274
