             radius   SpeedofSoundError            Expected              Actual 
      0.100000000000     -0.000000012298      0.938638682945      0.938638695243
      0.103515625000     -0.000000012250      0.938874972834      0.938874985084
      0.107031250000     -0.000000012201      0.939111341907      0.939111354108
      0.110546875000     -0.000000012153      0.939347789575      0.939347801728
      0.114062500000     -0.000000012104      0.939584315247      0.939584327351
      0.117578125000     -0.000000012055      0.939820918334      0.939820930389
      0.121093750000     -0.000000012007      0.940057598242      0.940057610249
      0.124609375000     -0.000000011958      0.940294354381      0.940294366339
      0.128125000000     -0.000000011909      0.940531186157      0.940531198066
      0.131640625000     -0.000000011861      0.940768092976      0.940768104837
      0.135156250000     -0.000000011812      0.941005074244      0.941005086056
      0.138671875000     -0.000000011763      0.941242129365      0.941242141128
      0.142187500000     -0.000000011714      0.941479257743      0.941479269457
      0.145703125000     -0.000000011665      0.941716458782      0.941716470447
      0.149218750000     -0.000000011616      0.941953731883      0.941953743499
      0.152734375000     -0.000000011567      0.942191076448      0.942191088016
      0.156250000000     -0.000000011518      0.942428491879      0.942428503398
      0.159765625000     -0.000000011469      0.942665977576      0.942665989045
      0.163281250000     -0.000000011420      0.942903532938      0.942903544358
      0.166796875000     -0.000000011371      0.943141157363      0.943141168734
      0.170312500000     -0.000000011322      0.943378850251      0.943378861573
      0.173828125000     -0.000000011273      0.943616610998      0.943616622270
      0.177343750000     -0.000000011224      0.943854439001      0.943854450224
      0.180859375000     -0.000000011174      0.944092333656      0.944092344830
      0.184375000000     -0.000000011125      0.944330294358      0.944330305483
      0.187890625000     -0.000000011076      0.944568320503      0.944568331579
      0.191406250000     -0.000000011026      0.944806411484      0.944806422510
      0.194921875000     -0.000000010977      0.945044566694      0.945044577671
      0.198437500000     -0.000000010928      0.945282785526      0.945282796454
      0.201953125000     -0.000000010878      0.945521067372      0.945521078251
      0.205468750000     -0.000000010829      0.945759411624      0.945759422453
      0.208984375000     -0.000000010779      0.945997817672      0.945997828451
      0.212500000000     -0.000000010730      0.946236284906      0.946236295636
      0.216015625000     -0.000000010680      0.946474812716      0.946474823397
      0.219531250000     -0.000000010631      0.946713400491      0.946713411122
      0.223046875000     -0.000000010581      0.946952047619      0.946952058200
      0.226562500000     -0.000000010532      0.947190753487      0.947190764018
      0.230078125000     -0.000000010482      0.947429517482      0.947429527964
      0.233593750000     -0.000000010433      0.947668338992      0.947668349424
      0.237109375000     -0.000000010383      0.947907217401      0.947907227784
      0.240625000000     -0.000000010333      0.948146152095      0.948146162428
      0.244140625000     -0.000000010284      0.948385142459      0.948385152742
      0.247656250000     -0.000000010234      0.948624187877      0.948624198110
      0.251171875000     -0.000000010184      0.948863287732      0.948863297916
      0.254687500000     -0.000000010134      0.949102441407      0.949102451541
      0.258203125000     -0.000000010085      0.949341648285      0.949341658369
      0.261718750000     -0.000000010035      0.949580907747      0.949580917782
      0.265234375000     -0.000000009985      0.949820219176      0.949820229161
      0.268750000000     -0.000000009935      0.950059581951      0.950059591886
      0.272265625000     -0.000000009885      0.950298995453      0.950299005338
      0.275781250000     -0.000000009836      0.950538459061      0.950538468897
      0.279296875000     -0.000000009786      0.950777972156      0.950777981941
      0.282812500000     -0.000000009736      0.951017534115      0.951017543851
      0.286328125000     -0.000000009686      0.951257144317      0.951257154003
      0.289843750000     -0.000000009636      0.951496802139      0.951496811775
      0.293359375000     -0.000000009586      0.951736506959      0.951736516545
      0.296875000000     -0.000000009536      0.951976258154      0.951976267690
      0.300390625000     -0.000000009486      0.952216055099      0.952216064585
      0.303906250000     -0.000000009436      0.952455897171      0.952455906607
      0.307421875000     -0.000000009386      0.952695783744      0.952695793130
      0.310937500000     -0.000000009336      0.952935714194      0.952935723531
      0.314453125000     -0.000000009286      0.953175687896      0.953175697182
      0.317968750000     -0.000000009236      0.953415704222      0.953415713458
      0.321484375000     -0.000000009186      0.953655762546      0.953655771733
      0.325000000000     -0.000000009136      0.953895862242      0.953895871379
      0.328515625000     -0.000000009086      0.954136002683      0.954136011769
      0.332031250000     -0.000000009036      0.954376183239      0.954376192276
      0.335546875000     -0.000000008986      0.954616403284      0.954616412271
      0.339062500000     -0.000000008936      0.954856662189      0.954856671125
      0.342578125000     -0.000000008886      0.955096959324      0.955096968210
      0.346093750000     -0.000000008836      0.955337294061      0.955337302897
      0.349609375000     -0.000000008786      0.955577665768      0.955577674554
      0.353125000000     -0.000000008736      0.955818073817      0.955818082553
      0.356640625000     -0.000000008686      0.956058517577      0.956058526263
      0.360156250000     -0.000000008636      0.956298996417      0.956299005052
      0.363671875000     -0.000000008586      0.956539509705      0.956539518290
      0.367187500000     -0.000000008535      0.956780056809      0.956780065345
      0.370703125000     -0.000000008485      0.957020637099      0.957020645584
      0.374218750000     -0.000000008435      0.957261249941      0.957261258376
      0.377734375000     -0.000000008385      0.957501894703      0.957501903088
      0.381250000000     -0.000000008335      0.957742570751      0.957742579087
      0.384765625000     -0.000000008285      0.957983277454      0.957983285739
      0.388281250000     -0.000000008235      0.958224014175      0.958224022410
      0.391796875000     -0.000000008185      0.958464780283      0.958464788468
      0.395312500000     -0.000000008135      0.958705575142      0.958705583277
      0.398828125000     -0.000000008085      0.958946398119      0.958946406203
      0.402343750000     -0.000000008035      0.959187248577      0.959187256611
      0.405859375000     -0.000000007985      0.959428125882      0.959428133867
      0.409375000000     -0.000000007934      0.959669029399      0.959669037333
      0.412890625000     -0.000000007884      0.959909958492      0.959909966376
      0.416406250000     -0.000000007834      0.960150912524      0.960150920358
      0.419921875000     -0.000000007784      0.960391890860      0.960391898644
      0.423437500000     -0.000000007734      0.960632892863      0.960632900598
      0.426953125000     -0.000000007684      0.960873917897      0.960873925581
      0.430468750000     -0.000000007634      0.961114965324      0.961114972958
      0.433984375000     -0.000000007584      0.961356034507      0.961356042092
      0.437500000000     -0.000000007534      0.961597124810      0.961597132344
      0.441015625000     -0.000000007484      0.961838235593      0.961838243077
      0.444531250000     -0.000000007434      0.962079366220      0.962079373654
      0.448046875000     -0.000000007384      0.962320516051      0.962320523436
      0.451562500000     -0.000000007334      0.962561684450      0.962561691784
      0.455078125000     -0.000000007284      0.962802870778      0.962802878062
      0.458593750000     -0.000000007234      0.963044074395      0.963044081629
      0.462109375000     -0.000000007184      0.963285294663      0.963285301847
      0.465625000000     -0.000000007134      0.963526530943      0.963526538077
      0.469140625000     -0.000000007084      0.963767782596      0.963767789681
      0.472656250000     -0.000000007035      0.964009048983      0.964009056017
      0.476171875000     -0.000000006985      0.964250329463      0.964250336448
      0.479687500000     -0.000000006935      0.964491623398      0.964491630333
      0.483203125000     -0.000000006885      0.964732930148      0.964732937033
      0.486718750000     -0.000000006835      0.964974249072      0.964974255907
      0.490234375000     -0.000000006785      0.965215579532      0.965215586317
      0.493750000000     -0.000000006735      0.965456920885      0.965456927621
      0.497265625000     -0.000000006686      0.965698272493      0.965698279179
      0.500781250000     -0.000000006636      0.965939633715      0.965939640351
      0.504296875000     -0.000000006586      0.966181003910      0.966181010496
      0.507812500000     -0.000000006536      0.966422382438      0.966422388974
      0.511328125000     -0.000000006487      0.966663768658      0.966663775145
      0.514843750000     -0.000000006437      0.966905161930      0.966905168367
      0.518359375000     -0.000000006387      0.967146561612      0.967146568000
      0.521875000000     -0.000000006338      0.967387967065      0.967387973402
      0.525390625000     -0.000000006288      0.967629377646      0.967629383934
      0.528906250000     -0.000000006238      0.967870792715      0.967870798953
      0.532421875000     -0.000000006189      0.968112211630      0.968112217819
      0.535937500000     -0.000000006139      0.968353633752      0.968353639891
      0.539453125000     -0.000000006090      0.968595058438      0.968595064527
      0.542968750000     -0.000000006040      0.968836485047      0.968836491087
      0.546484375000     -0.000000005991      0.969077912939      0.969077918930
      0.550000000000     -0.000000005941      0.969319341472      0.969319347414
      0.553515625000     -0.000000005892      0.969560770006      0.969560775897
      0.557031250000     -0.000000005842      0.969802197898      0.969802203740
      0.560546875000     -0.000000005793      0.970043624507      0.970043630300
      0.564062500000     -0.000000005744      0.970285049193      0.970285054937
      0.567578125000     -0.000000005694      0.970526471315      0.970526477009
      0.571093750000     -0.000000005645      0.970767890230      0.970767895875
      0.574609375000     -0.000000005596      0.971009305299      0.971009310895
      0.578125000000     -0.000000005546      0.971250715880      0.971250721427
      0.581640625000     -0.000000005497      0.971492121333      0.971492126830
      0.585156250000     -0.000000005448      0.971733521015      0.971733526463
      0.588671875000     -0.000000005399      0.971974914287      0.971974919685
      0.592187500000     -0.000000005350      0.972216300507      0.972216305857
      0.595703125000     -0.000000005301      0.972457679035      0.972457684336
      0.599218750000     -0.000000005252      0.972699049230      0.972699054482
      0.602734375000     -0.000000005203      0.972940410452      0.972940415654
      0.606250000000     -0.000000005154      0.973181762060      0.973181767213
      0.609765625000     -0.000000005105      0.973423103413      0.973423108518
      0.613281250000     -0.000000005056      0.973664433872      0.973664438928
      0.616796875000     -0.000000005007      0.973905752797      0.973905757804
      0.620312500000     -0.000000004958      0.974147059546      0.974147064504
      0.623828125000     -0.000000004909      0.974388353482      0.974388358391
      0.627343750000     -0.000000004860      0.974629633962      0.974629638822
      0.630859375000     -0.000000004812      0.974870900349      0.974870905160
      0.634375000000     -0.000000004763      0.975112152002      0.975112156765
      0.637890625000     -0.000000004714      0.975353388282      0.975353392996
      0.641406250000     -0.000000004666      0.975594608550      0.975594613216
      0.644921875000     -0.000000004617      0.975835812167      0.975835816784
      0.648437500000     -0.000000004568      0.976076998495      0.976077003063
      0.651953125000     -0.000000004520      0.976318166894      0.976318171413
      0.655468750000     -0.000000004472      0.976559316725      0.976559321197
      0.658984375000     -0.000000004423      0.976800447352      0.976800451775
      0.662500000000     -0.000000004375      0.977041558135      0.977041562510
      0.666015625000     -0.000000004326      0.977282648437      0.977282652764
      0.669531250000     -0.000000004278      0.977523717621      0.977523721899
      0.673046875000     -0.000000004230      0.977764765048      0.977764769278
      0.676562500000     -0.000000004182      0.978005790082      0.978005794263
      0.680078125000     -0.000000004133      0.978246792085      0.978246796218
      0.683593750000     -0.000000004085      0.978487770421      0.978487774506
      0.687109375000     -0.000000004037      0.978728724453      0.978728728491
      0.690625000000     -0.000000003989      0.978969653546      0.978969657535
      0.694140625000     -0.000000003941      0.979210557063      0.979210561004
      0.697656250000     -0.000000003893      0.979451434368      0.979451438261
      0.701171875000     -0.000000003845      0.979692284826      0.979692288672
      0.704687500000     -0.000000003798      0.979933107803      0.979933111600
      0.708203125000     -0.000000003750      0.980173902662      0.980173906412
      0.711718750000     -0.000000003702      0.980414668770      0.980414672472
      0.715234375000     -0.000000003654      0.980655405491      0.980655409146
      0.718750000000     -0.000000003607      0.980896112193      0.980896115800
      0.722265625000     -0.000000003559      0.981136788242      0.981136791801
      0.725781250000     -0.000000003512      0.981377433004      0.981377436516
      0.729296875000     -0.000000003464      0.981618045846      0.981618049310
      0.732812500000     -0.000000003417      0.981858626136      0.981858629552
      0.736328125000     -0.000000003369      0.982099173240      0.982099176610
      0.739843750000     -0.000000003322      0.982339686528      0.982339689850
      0.743359375000     -0.000000003275      0.982580165368      0.982580168643
      0.746875000000     -0.000000003228      0.982820609127      0.982820612355
      0.750390625000     -0.000000003180      0.983061017176      0.983061020357
      0.753906250000     -0.000000003133      0.983301388884      0.983301392018
      0.757421875000     -0.000000003086      0.983541723621      0.983541726707
      0.760937500000     -0.000000003039      0.983782020756      0.983782023795
      0.764453125000     -0.000000002992      0.984022279660      0.984022282653
      0.767968750000     -0.000000002945      0.984262499705      0.984262502651
      0.771484375000     -0.000000002899      0.984502680262      0.984502683161
      0.775000000000     -0.000000002852      0.984742820703      0.984742823554
      0.778515625000     -0.000000002805      0.984982920399      0.984982923204
      0.782031250000     -0.000000002759      0.985222978723      0.985222981482
      0.785546875000     -0.000000002712      0.985462995049      0.985462997761
      0.789062500000     -0.000000002665      0.985702968751      0.985702971416
      0.792578125000     -0.000000002619      0.985942899201      0.985942901820
      0.796093750000     -0.000000002572      0.986182785774      0.986182788347
      0.799609375000     -0.000000002526      0.986422627846      0.986422630372
      0.803125000000     -0.000000002480      0.986662424791      0.986662427271
      0.806640625000     -0.000000002434      0.986902175986      0.986902178419
      0.810156250000     -0.000000002387      0.987141880806      0.987141883193
      0.813671875000     -0.000000002341      0.987381538628      0.987381540970
      0.817187500000     -0.000000002295      0.987621148830      0.987621151125
      0.820703125000     -0.000000002249      0.987860710789      0.987860713039
      0.824218750000     -0.000000002203      0.988100223884      0.988100226087
      0.827734375000     -0.000000002158      0.988339687492      0.988339689650
      0.831250000000     -0.000000002112      0.988579100994      0.988579103106
      0.834765625000     -0.000000002066      0.988818463769      0.988818465835
      0.838281250000     -0.000000002020      0.989057775198      0.989057777218
      0.841796875000     -0.000000001975      0.989297034660      0.989297036635
      0.845312500000     -0.000000001929      0.989536241538      0.989536243468
      0.848828125000     -0.000000001884      0.989775395213      0.989775397097
      0.852343750000     -0.000000001839      0.990014495068      0.990014496907
      0.855859375000     -0.000000001793      0.990253540486      0.990253542279
      0.859375000000     -0.000000001748      0.990492530850      0.990492532598
      0.862890625000     -0.000000001703      0.990731465544      0.990731467247
      0.866406250000     -0.000000001658      0.990970343953      0.990970345611
      0.869921875000     -0.000000001613      0.991209165463      0.991209167076
      0.873437500000     -0.000000001568      0.991447929458      0.991447931026
      0.876953125000     -0.000000001523      0.991686635326      0.991686636849
      0.880468750000     -0.000000001478      0.991925282454      0.991925283932
      0.883984375000     -0.000000001433      0.992163870229      0.992163871662
      0.887500000000     -0.000000001389      0.992402398039      0.992402399427
      0.891015625000     -0.000000001344      0.992640865273      0.992640866617
      0.894531250000     -0.000000001300      0.992879271321      0.992879272620
      0.898046875000     -0.000000001255      0.993117615573      0.993117616828
      0.901562500000     -0.000000001211      0.993355897419      0.993355898630
      0.905078125000     -0.000000001166      0.993594116251      0.993594117418
      0.908593750000     -0.000000001122      0.993832271461      0.993832272584
      0.912109375000     -0.000000001078      0.994070362442      0.994070363520
      0.915625000000     -0.000000001034      0.994308388587      0.994308389621
      0.919140625000     -0.000000000990      0.994546349289      0.994546350279
      0.922656250000     -0.000000000946      0.994784243944      0.994784244890
      0.926171875000     -0.000000000902      0.995022071947      0.995022072850
      0.929687500000     -0.000000000858      0.995259832694      0.995259833553
      0.933203125000     -0.000000000815      0.995497525582      0.995497526397
      0.936718750000     -0.000000000771      0.995735150007      0.995735150778
      0.940234375000     -0.000000000728      0.995972705369      0.995972706097
      0.943750000000     -0.000000000684      0.996210191066      0.996210191750
      0.947265625000     -0.000000000641      0.996447606497      0.996447607137
      0.950781250000     -0.000000000597      0.996684951062      0.996684951660
      0.954296875000     -0.000000000554      0.996922224163      0.996922224718
      0.957812500000     -0.000000000511      0.997159425202      0.997159425713
