radius      S_expected         S_actual            Error 
  0.100000000000  0.000000000000  0.000000000000  1.211521737665
  0.100878906250  0.000515561077  0.000515561077  1.214792868986
  0.101757812500  0.001023750649  0.001023750648  1.218041461023
  0.102636718750  0.001524696884  0.001524696883  1.221251995016
  0.103515625000  0.002018524477  0.002018524476  1.224409654991
  0.104394531250  0.002505354776  0.002505354775  1.227500583863
  0.105273437500  0.002985305902  0.002985305901  1.230512103149
  0.106152343750  0.003458492864  0.003458492863  1.233432889635
  0.107031250000  0.003925027672  0.003925027671  1.236253104936
  0.107910156250  0.004385019438  0.004385019436  1.238964476573
  0.108789062500  0.004838574479  0.004838574477  1.241560331676
  0.109667968750  0.005285796413  0.005285796412  1.244035586610
  0.110546875000  0.005726786255  0.005726786253  1.246386697506
  0.111425781250  0.006161642498  0.006161642496  1.248611577899
  0.112304687500  0.006590461203  0.006590461202  1.250709490298
  0.113183593750  0.007013336082  0.007013336080  1.252680918709
  0.114062500000  0.007430358569  0.007430358567  1.254527428858
  0.114941406250  0.007841617900  0.007841617898  1.256251522323
  0.115820312500  0.008247201186  0.008247201184  1.257856489957
  0.116699218750  0.008647193474  0.008647193472  1.259346269101
  0.117578125000  0.009041677824  0.009041677822  1.260725308096
  0.118457031250  0.009430735361  0.009430735359  1.261998440705
  0.119335937500  0.009814445346  0.009814445344  1.263170772158
  0.120214843750  0.010192885228  0.010192885225  1.264247577815
  0.121093750000  0.010566130701  0.010566130699  1.265234214782
  0.121972656250  0.010934255762  0.010934255760  1.266136046338
  0.122851562500  0.011297332760  0.011297332757  1.266958378623
  0.123730468750  0.011655432444  0.011655432442  1.267706408780
  0.124609375000  0.012008624017  0.012008624015  1.268385183569
  0.125488281250  0.012356975178  0.012356975176  1.268999567352
  0.126367187500  0.012700552166  0.012700552164  1.269554218341
  0.127246093750  0.013039419808  0.013039419806  1.270053572003
  0.128125000000  0.013373641554  0.013373641552  1.270501830553
  0.129003906250  0.013703279523  0.013703279521  1.270902957560
  0.129882812500  0.014028394537  0.014028394535  1.271260676765
  0.130761718750  0.014349046160  0.014349046158  1.271578474301
  0.131640625000  0.014665292735  0.014665292733  1.271859603615
  0.132519531250  0.014977191415  0.014977191413  1.272107092471
  0.133398437500  0.015284798201  0.015284798199  1.272323751514
  0.134277343750  0.015588167970  0.015588167968  1.272512183938
  0.135156250000  0.015887354508  0.015887354505  1.272674795895
  0.136035156250  0.016182410540  0.016182410538  1.272813807349
  0.136914062500  0.016473387760  0.016473387758  1.272931263102
  0.137792968750  0.016760336856  0.016760336854  1.273029043823
  0.138671875000  0.017043307539  0.017043307537  1.273108876901
  0.139550781250  0.017322348571  0.017322348569  1.273172347022
  0.140429687500  0.017597507787  0.017597507785  1.273220906369
  0.141308593750  0.017868832118  0.017868832116  1.273255884388
  0.142187500000  0.018136367622  0.018136367621  1.273278497075
  0.143066406250  0.018400159500  0.018400159498  1.273289855764
  0.143945312500  0.018660252120  0.018660252118  1.273290975391
  0.144824218750  0.018916689040  0.018916689038  1.273282782244
  0.145703125000  0.019169513025  0.019169513024  1.273266121202
  0.146582031250  0.019418766074  0.019418766072  1.273241762473
  0.147460937500  0.019664489430  0.019664489428  1.273210407851
  0.148339843750  0.019906723607  0.019906723606  1.273172696506
  0.149218750000  0.020145508406  0.020145508404  1.273129210342
  0.150097656250  0.020380882929  0.020380882927  1.273080478935
  0.150976562500  0.020612885600  0.020612885598  1.273026984077
  0.151855468750  0.020841554181  0.020841554179  1.272969163960
  0.152734375000  0.021066925788  0.021066925786  1.272907417012
  0.153613281250  0.021289036905  0.021289036903  1.272842105417
  0.154492187500  0.021507923401  0.021507923400  1.272773558340
  0.155371093750  0.021723620546  0.021723620544  1.272702074877
  0.156250000000  0.021936163019  0.021936163018  1.272627926752
  0.157128906250  0.022145584932  0.022145584930  1.272551360779
  0.158007812500  0.022351919832  0.022351919830  1.272472601115
  0.158886718750  0.022555200723  0.022555200722  1.272391851314
  0.159765625000  0.022755460076  0.022755460074  1.272309296192
  0.160644531250  0.022952729837  0.022952729836  1.272225103539
  0.161523437500  0.023147041447  0.023147041445  1.272139425670
  0.162402343750  0.023338425846  0.023338425844  1.272052400838
  0.163281250000  0.023526913489  0.023526913487  1.271964154525
  0.164160156250  0.023712534354  0.023712534353  1.271874800611
  0.165039062500  0.023895317957  0.023895317956  1.271784442442
  0.165917968750  0.024075293356  0.024075293355  1.271693173795
  0.166796875000  0.024252489166  0.024252489165  1.271601079764
  0.167675781250  0.024426933568  0.024426933567  1.271508237555
  0.168554687500  0.024598654317  0.024598654316  1.271414717221
  0.169433593750  0.024767678752  0.024767678750  1.271320582313
  0.170312500000  0.024934033804  0.024934033803  1.271225890489
  0.171191406250  0.025097746008  0.025097746007  1.271130694057
  0.172070312500  0.025258841509  0.025258841508  1.271035040468
  0.172949218750  0.025417346068  0.025417346067  1.270938972766
  0.173828125000  0.025573285076  0.025573285075  1.270842529998
  0.174707031250  0.025726683556  0.025726683555  1.270745747586
  0.175585937500  0.025877566176  0.025877566175  1.270648657657
  0.176464843750  0.026025957250  0.026025957249  1.270551289356
  0.177343750000  0.026171880753  0.026171880752  1.270453669117
  0.178222656250  0.026315360320  0.026315360319  1.270355820919
  0.179101562500  0.026456419260  0.026456419259  1.270257766509
  0.179980468750  0.026595080559  0.026595080558  1.270159525615
  0.180859375000  0.026731366885  0.026731366884  1.270061116129
  0.181738281250  0.026865300599  0.026865300598  1.269962554280
  0.182617187500  0.026996903758  0.026996903757  1.269863854787
  0.183496093750  0.027126198122  0.027126198121  1.269765031001
  0.184375000000  0.027253205159  0.027253205158  1.269666095031
  0.185253906250  0.027377946051  0.027377946050  1.269567057858
  0.186132812500  0.027500441703  0.027500441702  1.269467929444
  0.187011718750  0.027620712741  0.027620712740  1.269368718821
  0.187890625000  0.027738779527  0.027738779526  1.269269434184
  0.188769531250  0.027854662154  0.027854662153  1.269170082963
  0.189648437500  0.027968380461  0.027968380460  1.269070671896
  0.190527343750  0.028079954029  0.028079954028  1.268971207095
  0.191406250000  0.028189402194  0.028189402193  1.268871694101
  0.192285156250  0.028296744044  0.028296744043  1.268772137939
  0.193164062500  0.028401998429  0.028401998428  1.268672543166
  0.194042968750  0.028505183965  0.028505183964  1.268572913913
  0.194921875000  0.028606319035  0.028606319034  1.268473253926
  0.195800781250  0.028705421798  0.028705421797  1.268373566599
  0.196679687500  0.028802510189  0.028802510188  1.268273855008
  0.197558593750  0.028897601925  0.028897601924  1.268174121943
  0.198437500000  0.028990714509  0.028990714508  1.268074369928
  0.199316406250  0.029081865234  0.029081865233  1.267974601252
  0.200195312500  0.029171071188  0.029171071187  1.267874817984
  0.201074218750  0.029258349253  0.029258349252  1.267775021999
  0.201953125000  0.029343716115  0.029343716114  1.267675214991
  0.202832031250  0.029427188262  0.029427188262  1.267575398492
  0.203710937500  0.029508781994  0.029508781993  1.267475573885
  0.204589843750  0.029588513417  0.029588513416  1.267375742417
  0.205468750000  0.029666398456  0.029666398456  1.267275905212
  0.206347656250  0.029742452853  0.029742452852  1.267176063279
  0.207226562500  0.029816692170  0.029816692169  1.267076217526
  0.208105468750  0.029889131794  0.029889131793  1.266976368764
  0.208984375000  0.029959786940  0.029959786939  1.266876517717
  0.209863281250  0.030028672652  0.030028672651  1.266776665027
  0.210742187500  0.030095803809  0.030095803808  1.266676811264
  0.211621093750  0.030161195125  0.030161195124  1.266576956925
  0.212500000000  0.030224861152  0.030224861151  1.266477102445
  0.213378906250  0.030286816286  0.030286816285  1.266377248196
  0.214257812500  0.030347074764  0.030347074764  1.266277394494
  0.215136718750  0.030405650674  0.030405650674  1.266177541599
  0.216015625000  0.030462557951  0.030462557950  1.266077689720
  0.216894531250  0.030517810380  0.030517810380  1.265977839015
  0.217773437500  0.030571421605  0.030571421604  1.265877989593
  0.218652343750  0.030623405123  0.030623405122  1.265778141514
  0.219531250000  0.030673774292  0.030673774292  1.265678294792
  0.220410156250  0.030722542332  0.030722542331  1.265578449392
  0.221289062500  0.030769722324  0.030769722323  1.265478605230
  0.222167968750  0.030815327217  0.030815327217  1.265378762175
  0.223046875000  0.030859369829  0.030859369828  1.265278920043
  0.223925781250  0.030901862846  0.030901862845  1.265179078600
  0.224804687500  0.030942818826  0.030942818826  1.265079237554
  0.225683593750  0.030982250205  0.030982250204  1.264979396558
  0.226562500000  0.031020169290  0.031020169290  1.264879555202
  0.227441406250  0.031056588271  0.031056588271  1.264779713011
  0.228320312500  0.031091519215  0.031091519215  1.264679869442
  0.229199218750  0.031124974072  0.031124974072  1.264580023873
  0.230078125000  0.031156964677  0.031156964676  1.264480175603
  0.230957031250  0.031187502748  0.031187502747  1.264380323842
  0.231835937500  0.031216599893  0.031216599892  1.264280467705
  0.232714843750  0.031244267607  0.031244267607  1.264180606200
  0.233593750000  0.031270517278  0.031270517278  1.264080738224
  0.234472656250  0.031295360185  0.031295360185  1.263980862547
  0.235351562500  0.031318807502  0.031318807501  1.263880977803
  0.236230468750  0.031340870297  0.031340870296  1.263781082476
  0.237109375000  0.031361559536  0.031361559536  1.263681174884
  0.237988281250  0.031380886087  0.031380886086  1.263581253168
  0.238867187500  0.031398860712  0.031398860712  1.263481315268
  0.239746093750  0.031415494081  0.031415494081  1.263381358904
  0.240625000000  0.031430796764  0.031430796763  1.263281381560
  0.241503906250  0.031444779235  0.031444779234  1.263181380452
  0.242382812500  0.031457451876  0.031457451876  1.263081352506
  0.243261718750  0.031468824976  0.031468824976  1.262981294330
  0.244140625000  0.031478908732  0.031478908731  1.262881202175
  0.245019531250  0.031487713251  0.031487713251  1.262781071906
  0.245898437500  0.031495248553  0.031495248553  1.262680898959
  0.246777343750  0.031501524569  0.031501524568  1.262580678298
  0.247656250000  0.031506551144  0.031506551143  1.262480404369
  0.248535156250  0.031510338038  0.031510338038  1.262380071042
  0.249414062500  0.031512894929  0.031512894929  1.262279671558
  0.250292968750  0.031514231410  0.031514231410  1.262179198463
  0.251171875000  0.031514356995  0.031514356994  1.262078643534
  0.252050781250  0.031513281115  0.031513281115  1.261977997705
  0.252929687500  0.031511013125  0.031511013125  1.261877250980
  0.253808593750  0.031507562300  0.031507562299  1.261776392336
  0.254687500000  0.031502937837  0.031502937837  1.261675409619
  0.255566406250  0.031497148861  0.031497148861  1.261574289432
  0.256445312500  0.031490204418  0.031490204417  1.261473017004
  0.257324218750  0.031482113482  0.031482113481  1.261371576052
  0.258203125000  0.031472884954  0.031472884954  1.261269948629
  0.259082031250  0.031462527663  0.031462527663  1.261168114951
  0.259960937500  0.031451050368  0.031451050368  1.261066053213
  0.260839843750  0.031438461757  0.031438461756  1.260963739384
  0.261718750000  0.031424770448  0.031424770447  1.260861146982
  0.262597656250  0.031409984992  0.031409984992  1.260758246823
  0.263476562500  0.031394113875  0.031394113874  1.260655006749
  0.264355468750  0.031377165512  0.031377165512  1.260551391330
  0.265234375000  0.031359148256  0.031359148256  1.260447361532
  0.266113281250  0.031340070394  0.031340070394  1.260342874355
  0.266992187500  0.031319940151  0.031319940150  1.260237882433
  0.267871093750  0.031298765685  0.031298765685  1.260132333601
  0.268750000000  0.031276555097  0.031276555096  1.260026170411
  0.269628906250  0.031253316422  0.031253316422  1.259919329608
  0.270507812500  0.031229057637  0.031229057637  1.259811741551
  0.271386718750  0.031203786660  0.031203786660  1.259703329584
  0.272265625000  0.031177511347  0.031177511346  1.259594009339
  0.273144531250  0.031150239497  0.031150239497  1.259483687983
  0.274023437500  0.031121978853  0.031121978853  1.259372263386
  0.274902343750  0.031092737100  0.031092737099  1.259259623221
  0.275781250000  0.031062521865  0.031062521865  1.259145643972
  0.276660156250  0.031031340722  0.031031340721  1.259030189864
  0.277539062500  0.030999201189  0.030999201189  1.258913111685
  0.278417968750  0.030966110730  0.030966110730  1.258794245522
  0.279296875000  0.030932076757  0.030932076757  1.258673411375
  0.280175781250  0.030897106627  0.030897106627  1.258550411661
  0.281054687500  0.030861207646  0.030861207645  1.258425029599
  0.281933593750  0.030824387067  0.030824387067  1.258297027468
  0.282812500000  0.030786652095  0.030786652095  1.258166144725
  0.283691406250  0.030748009882  0.030748009882  1.258032096000
  0.284570312500  0.030708467531  0.030708467531  1.257894568940
  0.285449218750  0.030668032097  0.030668032097  1.257753221918
  0.286328125000  0.030626710584  0.030626710584  1.257607681609
  0.287207031250  0.030584509951  0.030584509950  1.257457540423
  0.288085937500  0.030541437106  0.030541437106  1.257302353822
  0.288964843750  0.030497498914  0.030497498914  1.257141637521
  0.289843750000  0.030452702192  0.030452702191  1.256974864604
  0.290722656250  0.030407053709  0.030407053709  1.256801462569
  0.291601562500  0.030360560192  0.030360560192  1.256620810352
  0.292480468750  0.030313228322  0.030313228322  1.256432235367
  0.293359375000  0.030265064735  0.030265064735  1.256235010627
  0.294238281250  0.030216076024  0.030216076024  1.256028352007
  0.295117187500  0.030166268739  0.030166268739  1.255811415764
  0.295996093750  0.030115649387  0.030115649386  1.255583296386
  0.296875000000  0.030064224431  0.030064224431  1.255343024942
  0.297753906250  0.030012000295  0.030012000295  1.255089568042
  0.298632812500  0.029958983361  0.029958983361  1.254821827615
  0.299511718750  0.029905179967  0.029905179967  1.254538641700
  0.300390625000  0.029850596415  0.029850596415  1.254238786460
  0.301269531250  0.029795238964  0.029795238963  1.253920979702
  0.302148437500  0.029739113834  0.029739113833  1.253583886154
  0.303027343750  0.029682227206  0.029682227206  1.253226124798
  0.303906250000  0.029624585223  0.029624585223  1.252846278564
  0.304785156250  0.029566193988  0.029566193988  1.252442906689
  0.305664062500  0.029507059568  0.029507059568  1.252014560014
  0.306542968750  0.029447187992  0.029447187992  1.251559799476
  0.307421875000  0.029386585249  0.029386585249  1.251077217995
  0.308300781250  0.029325257297  0.029325257296  1.250565465849
  0.309179687500  0.029263210051  0.029263210051  1.250023279535
  0.310058593750  0.029200449396  0.029200449395  1.249449513967
  0.310937500000  0.029136981177  0.029136981176  1.248843177646
  0.311816406250  0.029072811206  0.029072811206  1.248203470268
  0.312695312500  0.029007945260  0.029007945259  1.247529821947
  0.313574218750  0.028942389080  0.028942389080  1.246821933030
  0.314453125000  0.028876148376  0.028876148376  1.246079813151
  0.315332031250  0.028809228820  0.028809228820  1.245303818015
  0.316210937500  0.028741636054  0.028741636054  1.244494682146
  0.317089843750  0.028673375685  0.028673375685  1.243653545746
  0.317968750000  0.028604453288  0.028604453288  1.242781973773
  0.318847656250  0.028534874405  0.028534874405  1.241881965453
  0.319726562500  0.028464644547  0.028464644547  1.240955952656
  0.320605468750  0.028393769190  0.028393769190  1.240006785958
  0.321484375000  0.028322253783  0.028322253783  1.239037707725
  0.322363281250  0.028250103741  0.028250103741  1.238052312160
  0.323242187500  0.028177324448  0.028177324448  1.237054492980
  0.324121093750  0.028103921258  0.028103921258  1.236048380096
  0.325000000000  0.028029899495  0.028029899495  1.235038267342
  0.325878906250  0.027955264453  0.027955264453  1.234028533901
  0.326757812500  0.027880021395  0.027880021395  1.233023562481
  0.327636718750  0.027804175556  0.027804175556  1.232027657526
  0.328515625000  0.027727732142  0.027727732142  1.231044966738
  0.329394531250  0.027650696328  0.027650696328  1.230079408980
  0.330273437500  0.027573073262  0.027573073262  1.229134611186
  0.331152343750  0.027494868064  0.027494868064  1.228213856349
  0.332031250000  0.027416085825  0.027416085825  1.227320043951
  0.332910156250  0.027336731609  0.027336731609  1.226455663503
  0.333789062500  0.027256810451  0.027256810450  1.225622781152
  0.334667968750  0.027176327359  0.027176327359  1.224823038682
  0.335546875000  0.027095287316  0.027095287316  1.224057663747
  0.336425781250  0.027013695276  0.027013695276  1.223327489765
  0.337304687500  0.026931556167  0.026931556167  1.222632983700
  0.338183593750  0.026848874890  0.026848874890  1.221974279856
  0.339062500000  0.026765656322  0.026765656322  1.221351217805
  0.339941406250  0.026681905312  0.026681905312  1.220763382752
  0.340820312500  0.026597626683  0.026597626683  1.220210146773
  0.341699218750  0.026512825236  0.026512825236  1.219690709639
  0.342578125000  0.026427505742  0.026427505742  1.219204138178
  0.343457031250  0.026341672951  0.026341672951  1.218749403403
  0.344335937500  0.026255331586  0.026255331586  1.218325414844
  0.345214843750  0.026168486347  0.026168486347  1.217931051774
  0.346093750000  0.026081141908  0.026081141908  1.217565191185
  0.346972656250  0.025993302920  0.025993302919  1.217226732523
  0.347851562500  0.025904974009  0.025904974009  1.216914619309
  0.348730468750  0.025816159780  0.025816159780  1.216627857866
  0.349609375000  0.025726864811  0.025726864811  1.216365533425
  0.350488281250  0.025637093659  0.025637093658  1.216126823914
  0.351367187500  0.025546850856  0.025546850856  1.215911011768
  0.352246093750  0.025456140914  0.025456140914  1.215717494080
  0.353125000000  0.025364968320  0.025364968320  1.215545791419
  0.354003906250  0.025273337539  0.025273337539  1.215395555610
  0.354882812500  0.025181253013  0.025181253013  1.215266576767
  0.355761718750  0.025088719163  0.025088719163  1.215158789832
  0.356640625000  0.024995740387  0.024995740387  1.215072280837
  0.357519531250  0.024902321063  0.024902321063  1.215007293106
  0.358398437500  0.024808465545  0.024808465544  1.214964233551
  0.359277343750  0.024714178166  0.024714178166  1.214943679215
  0.360156250000  0.024619463240  0.024619463240  1.214946384181
  0.361035156250  0.024524325058  0.024524325058  1.214973286912
  0.361914062500  0.024428767890  0.024428767890  1.215025518104
  0.362792968750  0.024332795985  0.024332795985  1.215104409062
  0.363671875000  0.024236413572  0.024236413572  1.215211500605
  0.364550781250  0.024139624861  0.024139624861  1.215348552445
  0.365429687500  0.024042434039  0.024042434039  1.215517552980
  0.366308593750  0.023944845274  0.023944845274  1.215720729358
  0.367187500000  0.023846862714  0.023846862714  1.215960557669
  0.368066406250  0.023748490489  0.023748490489  1.216239773003
