radius      S_expected         S_actual            Error 
  0.100000000000 -0.000000000000  0.000000000000  0.048312557153
  0.100878906250 -0.002358572057 -0.002753673970  0.000504539786
  0.101757812500 -0.007114863073 -0.007505899946  0.000737461218
  0.102636718750 -0.014201208812 -0.014585536158  0.001010390763
  0.103515625000 -0.023536437510 -0.023911507389  0.001296790079
  0.104394531250 -0.035027105219 -0.035390501507  0.001588175151
  0.105273437500 -0.048568838847 -0.048918309320  0.001881239708
  0.106152343750 -0.064047750886 -0.064381235389  0.002174476968
  0.107031250000 -0.081341892702 -0.081657546862  0.002467120018
  0.107910156250 -0.100322717157 -0.100618931215  0.002758746698
  0.108789062500 -0.120856525615 -0.121131938128  0.003049110933
  0.109667968750 -0.142805878728 -0.143059385076  0.003338062857
  0.110546875000 -0.166030954478 -0.166261710227  0.003625507814
  0.111425781250 -0.190390840424 -0.190598259793  0.003911384000
  0.112304687500 -0.215744750112 -0.215928499872  0.004195649684
  0.113183593750 -0.241953155900 -0.242113145163  0.004478275676
  0.114062500000 -0.268878832331 -0.269015198773  0.004759240803
  0.114941406250 -0.296387805625 -0.296500898716  0.005038529155
  0.115820312500 -0.324350206063 -0.324440567937  0.005316128429
  0.116699218750 -0.352641021092 -0.352709365673  0.005592028929
  0.117578125000 -0.381140747976 -0.381187938978  0.005866222973
  0.118457031250 -0.409735945852 -0.409762974221  0.006138704546
  0.119335937500 -0.438319688081 -0.438327649420  0.006409469090
  0.120214843750 -0.466791916878 -0.466781989316  0.006678513370
  0.121093750000 -0.495059703296 -0.495033126205  0.006945835369
  0.121972656250 -0.523037416678 -0.522995470586  0.007211434193
  0.122851562500 -0.550646808723 -0.550590796668  0.007475309978
  0.123730468750 -0.577817018139 -0.577748248664  0.007737463779
  0.124609375000 -0.604484502628 -0.604404274561  0.007997897460
  0.125488281250 -0.630592905502 -0.630502494566  0.008256613575
  0.126367187500 -0.656092864607 -0.655993511897  0.008513615246
  0.127246093750 -0.680941771439 -0.680834673730  0.008768906045
  0.128125000000 -0.705103488355 -0.704989790181  0.009022489881
  0.129003906250 -0.728548031644 -0.728428819041  0.009274370896
  0.129882812500 -0.751251227912 -0.751127523731  0.009524553375
  0.130761718750 -0.773194350879 -0.773067111510  0.009773041664
  0.131640625000 -0.794363745107 -0.794233858492  0.010019840105
  0.132519531250 -0.814750442685 -0.814618727457  0.010264952983
  0.133398437500 -0.834349778202 -0.834216983818  0.010508384489
  0.134277343750 -0.853161006757 -0.853027814468  0.010750138688
  0.135156250000 -0.871186929060 -0.871053953587  0.010990219501
  0.136035156250 -0.888433527071 -0.888301318860  0.011228630700
  0.136914062500 -0.904909612996 -0.904778660929  0.011465375903
  0.137792968750 -0.920626493909 -0.920497228362  0.011700458578
  0.138671875000 -0.935597653697 -0.935470449851  0.011933882055
  0.139550781250 -0.949838453593 -0.949713634917  0.012165649532
  0.140429687500 -0.963365852103 -0.963243693921  0.012395764096
  0.141308593750 -0.976198144746 -0.976078877845  0.012624228733
  0.142187500000 -0.988354723739 -0.988238537941  0.012851046348
  0.143066406250 -0.999855857436 -0.999742905112  0.013076219775
  0.143945312500 -1.010722489135 -1.010612888612  0.013299751799
  0.144824218750 -1.020976054658 -1.020869893497  0.013521645166
  0.145703125000 -1.030638317979 -1.030535656098  0.013741902595
  0.146582031250 -1.039731224042 -1.039632096675  0.013960526793
  0.147460937500 -1.048276767850 -1.048181188328  0.014177520464
  0.148339843750 -1.056296878833 -1.056204841183  0.014392886318
  0.149218750000 -1.063813319497 -1.063724800854  0.014606627077
  0.150097656250 -1.070847597311 -1.070762560146  0.014818745483
  0.150976562500 -1.077420888819 -1.077339282993  0.015029244305
  0.151855468750 -1.083553974987 -1.083475739616  0.015238126339
  0.152734375000 -1.089267186785 -1.089192251954  0.015445394414
  0.153613281250 -1.094580360103 -1.094508648403  0.015651051392
  0.154492187500 -1.099512799077 -1.099444226999  0.015855100174
  0.155371093750 -1.104083246997 -1.104017726182  0.016057543694
  0.156250000000 -1.108309864004 -1.108247302353  0.016258384928
  0.157128906250 -1.112210210820 -1.112150513490  0.016457626883
  0.158007812500 -1.115801237835 -1.115744308112  0.016655272609
  0.158886718750 -1.119099278907 -1.119045018974  0.016851325186
  0.159765625000 -1.122120049282 -1.122068360896  0.017045787734
  0.160644531250 -1.124878647113 -1.124829432185  0.017238663401
  0.161523437500 -1.127389558067 -1.127342719167  0.017429955373
  0.162402343750 -1.129666662589 -1.129622103377  0.017619666862
  0.163281250000 -1.131723245414 -1.131680871008  0.017807801111
  0.164160156250 -1.133572006973 -1.133531724249  0.017994361393
  0.165039062500 -1.135225076353 -1.135186794204  0.018179351002
  0.165917968750 -1.136694025531 -1.136657655072  0.018362773263
  0.166796875000 -1.137989884625 -1.137955339355  0.018544631519
  0.167675781250 -1.139123157922 -1.139090353857  0.018724929137
  0.168554687500 -1.140103840495 -1.140072696258  0.018903669506
  0.169433593750 -1.140941435221 -1.140911872111  0.019080856030
  0.170312500000 -1.141644970042 -1.141616912075  0.019256492135
  0.171191406250 -1.142223015353 -1.142196389282  0.019430581261
  0.172070312500 -1.142683701376 -1.142658436691  0.019603126865
  0.172949218750 -1.143034735437 -1.143010764354  0.019774132416
  0.173828125000 -1.143283419055 -1.143260676485  0.019943601401
  0.174707031250 -1.143436664774 -1.143415088281  0.020111537314
  0.175585937500 -1.143501012664 -1.143480542419  0.020277943664
  0.176464843750 -1.143482646469 -1.143463225191  0.020442823970
  0.177343750000 -1.143387409331 -1.143368982222  0.020606181762
  0.178222656250 -1.143220819076 -1.143203333752  0.020768020576
  0.179101562500 -1.142988083032 -1.142971489451  0.020928343960
  0.179980468750 -1.142694112361 -1.142678362745  0.021087155469
  0.180859375000 -1.142343535887 -1.142328584644  0.021244458665
  0.181738281250 -1.141940713417 -1.141926517059  0.021400257117
  0.182617187500 -1.141489748543 -1.141476265609  0.021554554401
  0.183496093750 -1.140994500936 -1.140981691907  0.021707354098
  0.184375000000 -1.140458598119 -1.140446425338  0.021858659796
  0.185253906250 -1.139885446732 -1.139873874323  0.022008475088
  0.186132812500 -1.139278243289 -1.139267237079  0.022156803570
  0.187011718750 -1.138639984448 -1.138629511887  0.022303648845
  0.187890625000 -1.137973476786 -1.137963506871  0.022449014519
  0.188769531250 -1.137281346099 -1.137271849298  0.022592904202
  0.189648437500 -1.136566046236 -1.136556994415  0.022735321508
  0.190527343750 -1.135829867486 -1.135821233836  0.022876270055
  0.191406250000 -1.135074944512 -1.135066703481  0.023015753464
  0.192285156250 -1.134303263870 -1.134295391093  0.023153775359
  0.193164062500 -1.133516671099 -1.133509143333  0.023290339367
  0.194042968750 -1.132716877417 -1.132709672476  0.023425449118
  0.194921875000 -1.131905466025 -1.131898562719  0.023559108245
  0.195800781250 -1.131083898028 -1.131077276102  0.023691320383
  0.196679687500 -1.130253517997 -1.130247158074  0.023822089168
  0.197558593750 -1.129415559171 -1.129409442693  0.023951418243
  0.198437500000 -1.128571148322 -1.128565257497  0.024079311247
  0.199316406250 -1.127721310285 -1.127715628034  0.024205771827
  0.200195312500 -1.126866972168 -1.126861482072  0.024330803627
  0.201074218750 -1.126008967250 -1.126003653502  0.024454410297
  0.201953125000 -1.125148038581 -1.125142885936  0.024576595487
  0.202832031250 -1.124284842287 -1.124279836015  0.024697362848
  0.203710937500 -1.123419950591 -1.123415076432  0.024816716035
  0.204589843750 -1.122553854560 -1.122549098679  0.024934658702
  0.205468750000 -1.121686966580 -1.121682315521  0.025051194507
  0.206347656250 -1.120819622570 -1.120815063218  0.025166327109
  0.207226562500 -1.119952083943 -1.119947603477  0.025280060168
  0.208105468750 -1.119084539309 -1.119080125165  0.025392397345
  0.208984375000 -1.118217105936 -1.118212745765  0.025503342304
  0.209863281250 -1.117349830972 -1.117345512599  0.025612898709
  0.210742187500 -1.116482692420 -1.116478403806  0.025721070226
  0.211621093750 -1.115615599882 -1.115611329085  0.025827860522
  0.212500000000 -1.114748395073 -1.114744130208  0.025933273267
  0.213378906250 -1.113880852094 -1.113876581297  0.026037312129
  0.214257812500 -1.113012677481 -1.113008388867  0.026139980779
  0.215136718750 -1.112143510020 -1.112139191647  0.026241282890
  0.216015625000 -1.111272920333 -1.111268560162  0.026341222135
  0.216894531250 -1.110400410230 -1.110395996086  0.026439802188
  0.217773437500 -1.109525411827 -1.109520931361  0.026537026723
  0.218652343750 -1.108647286433 -1.108642727080  0.026632899418
  0.219531250000 -1.107765323190 -1.107760672131  0.026727423949
  0.220410156250 -1.106878737484 -1.106873981601  0.026820603993
  0.221289062500 -1.105986669092 -1.105981794932  0.026912443230
  0.222167968750 -1.105088180099 -1.105083173826  0.027002945338
  0.223046875000 -1.104182252543 -1.104177099897  0.027092113998
  0.223925781250 -1.103267785806 -1.103262472057  0.027179952889
  0.224804687500 -1.102343593738 -1.102338103641  0.027266465692
  0.225683593750 -1.101408401500 -1.101402719247  0.027351656088
  0.226562500000 -1.100460842129 -1.100454951303  0.027435527758
  0.227441406250 -1.099499452815 -1.099493336336  0.027518084384
  0.228320312500 -1.098522670870 -1.098516310946  0.027599329646
  0.229199218750 -1.097528829396 -1.097522207468  0.027679267226
  0.230078125000 -1.096516152629 -1.096509249321  0.027757900804
  0.230957031250 -1.095482750963 -1.095475546020  0.027835234059
  0.231835937500 -1.094426615624 -1.094419087856  0.027911270672
  0.232714843750 -1.093345613001 -1.093337740222  0.027986014319
  0.233593750000 -1.092237478615 -1.092229237582  0.028059468679
  0.234472656250 -1.091099810712 -1.091091177060  0.028131637426
  0.235351562500 -1.089930063476 -1.089921011653  0.028202524235
  0.236230468750 -1.088725539842 -1.088716043038  0.028272132777
  0.237109375000 -1.087483383898 -1.087473413980  0.028340466720
  0.237988281250 -1.086200572879 -1.086190100315  0.028407529732
  0.238867187500 -1.084873908713 -1.084862902500  0.028473325476
  0.239746093750 -1.083500009140 -1.083488436728  0.028537857610
  0.240625000000 -1.082075298367 -1.082063125583  0.028601129789
  0.241503906250 -1.080595997266 -1.080583188234  0.028663145665
  0.242382812500 -1.079058113102 -1.079044630165  0.028723908881
  0.243261718750 -1.077457428778 -1.077443232417  0.028783423076
  0.244140625000 -1.075789491605 -1.075774540358  0.028841691881
  0.245019531250 -1.074049601572 -1.074033851951  0.028898718922
  0.245898437500 -1.072232799140 -1.072216205554  0.028954507812
  0.246777343750 -1.070333852543 -1.070316367213  0.029009062157
  0.247656250000 -1.068347244605 -1.068328817490  0.029062385551
  0.248535156250 -1.066267159089 -1.066247737805  0.029114481578
  0.249414062500 -1.064087466585 -1.064066996334  0.029165353806
  0.250292968750 -1.061801709948 -1.061780133449  0.029215005789
  0.251171875000 -1.059403089334 -1.059380346757  0.029263441063
  0.252050781250 -1.056884446836 -1.056860475746  0.029310663148
  0.252929687500 -1.054238250779 -1.054212986087  0.029356675542
  0.253808593750 -1.051456579720 -1.051429953640  0.029401481720
  0.254687500000 -1.048531106196 -1.048503048220  0.029445085131
  0.255566406250 -1.045453080316 -1.045423517196  0.029487489197
  0.256445312500 -1.042213313244 -1.042182168997  0.029528697309
  0.257324218750 -1.038802160708 -1.038769356633  0.029568712823
  0.258203125000 -1.035209506615 -1.035174961334  0.029607539057
  0.259082031250 -1.031424746916 -1.031388376445  0.029645179285
  0.259960937500 -1.027436773877 -1.027398491715  0.029681636738
  0.260839843750 -1.023233960910 -1.023193678173  0.029716914591
  0.261718750000 -1.018804148177 -1.018761773757  0.029751015965
  0.262597656250 -1.014134629179 -1.014090069952  0.029783943916
  0.263476562500 -1.009212138578 -1.009165299662  0.029815701431
  0.264355468750 -1.004022841553 -1.003973626608  0.029846291418
  0.265234375000 -0.998552324980 -0.998500636576  0.029875716701
  0.266113281250 -0.992785590814 -0.992731330862  0.029903980009
  0.266992187500 -0.986707052052 -0.986650122308  0.029931083967
  0.267871093750 -0.980300531724 -0.980240834372  0.029957031084
  0.268750000000 -0.973549265390 -0.973486703715  0.029981823742
  0.269628906250 -0.966435907670 -0.966370386830  0.030005464183
  0.270507812500 -0.958942543407 -0.958873971304  0.030027954492
  0.271386718750 -0.951050704075 -0.950978992348  0.030049296587
  0.272265625000 -0.942741390138 -0.942666455279  0.030069492193
  0.273144531250 -0.933995100110 -0.933916864709  0.030088542831
  0.274023437500 -0.924791867099 -0.924710261239  0.030106449790
  0.274902343750 -0.915111303722 -0.915026266523  0.030123214112
  0.275781250000 -0.904932656287 -0.904844137606  0.030138836557
  0.276660156250 -0.894234869202 -0.894142831514  0.030153317585
  0.277539062500 -0.882996660657 -0.882901081094  0.030166657321
  0.278417968750 -0.871196610584 -0.871097483173  0.030178855524
  0.279296875000 -0.858813262026 -0.858710600099  0.030189911554
  0.280175781250 -0.845825236993 -0.845719075783  0.030199824332
  0.281054687500 -0.832211367917 -0.832101767343  0.030208592300
  0.281933593750 -0.817950845822 -0.817837893442  0.030216213381
  0.282812500000 -0.803023386246 -0.802907200389  0.030222684930
  0.283691406250 -0.787409413948 -0.787290146985  0.030228003688
  0.284570312500 -0.771090267285 -0.770968109038  0.030232165728
  0.285449218750 -0.754048423061 -0.753923604316  0.030235166402
  0.286328125000 -0.736267742469 -0.736140538550  0.030237000290
  0.287207031250 -0.717733738516 -0.717604472890  0.030237661134
  0.288085937500 -0.698433865091 -0.698302912941  0.030237141787
  0.288964843750 -0.678357827492 -0.678225619194  0.030235434151
  0.289843750000 -0.657497913852 -0.657364938285  0.030232529116
  0.290722656250 -0.635849346458 -0.635716154070  0.030228416503
  0.291601562500 -0.613410651470 -0.613277856982  0.030223085010
  0.292480468750 -0.590184044913 -0.590052329574  0.030216522159
  0.293359375000 -0.566175832224 -0.566045945491  0.030208714246
  0.294238281250 -0.541396817884 -0.541269578391  0.030199646305
  0.295117187500 -0.515862720913 -0.515739016599  0.030189302074
  0.295996093750 -0.489594591152 -0.489475378409  0.030177663975
  0.296875000000 -0.462619220445 -0.462505522121  0.030164713108
  0.297753906250 -0.434969541886 -0.434862444020  0.030150429257
  0.298632812500 -0.406685009470 -0.406585656592  0.030134790924
  0.299511718750 -0.377811949595 -0.377721538482  0.030117775373
  0.300390625000 -0.348403875084 -0.348323646829  0.030099358713
  0.301269531250 -0.318521751682 -0.318452982008  0.030079516002
  0.302148437500 -0.288234206424 -0.288178194157  0.030058221386
  0.303027343750 -0.257617666876 -0.257575720559  0.030035448284
  0.303906250000 -0.226756420081 -0.226729842752  0.030011169609
  0.304785156250 -0.195742580169 -0.195732652354  0.029985358037
  0.305664062500 -0.164675953971 -0.164683915043  0.029957986337
  0.306542968750 -0.133663794798 -0.133690822884  0.029929027755
  0.307421875000 -0.102820435674 -0.102867626375  0.029898456457
  0.308300781250 -0.072266794915 -0.072335139176  0.029866248045
  0.309179687500 -0.042129748940 -0.042220110475  0.029832380139
  0.310058593750 -0.012541369630 -0.012654462362  0.029796833023
  0.310937500000  0.016361973642  0.016225607581  0.029759590363
  0.311816406250  0.044440643986  0.044280655126  0.029720639973
  0.312695312500  0.071552892214  0.071369142882  0.029679974638
  0.313574218750  0.097556126875  0.097348707959  0.029637592953
  0.314453125000  0.122308284912  0.122077529645  0.029593500173
  0.315332031250  0.145669285070  0.145415779233  0.029547709040
  0.316210937500  0.167502542603  0.167227130631  0.029500240543
  0.317089843750  0.187676520684  0.187380307201  0.029451124579
  0.317968750000  0.206066291153  0.205750637601  0.029400400473
  0.318847656250  0.222555075176  0.222221591319  0.029348117304
  0.319726562500  0.237035733069  0.236686263280  0.029294334006
  0.320605468750  0.249412172049  0.249048776486  0.029239119198
  0.321484375000  0.259600641211  0.259225572102  0.029182550728
  0.322363281250  0.267530884454  0.267146557923  0.029124714910
  0.323242187500  0.273147124577  0.272756088569  0.029065705455
  0.324121093750  0.276408855141  0.276013754146  0.029005622125
  0.325000000000  0.277291420912  0.276894958321  0.028944569137
  0.325878906250  0.275786372646  0.275391271651  0.028882653380
  0.326757812500  0.271901587444  0.271510551437  0.028819982492
  0.327636718750  0.265661151682  0.265276825152  0.028756662900
  0.328515625000  0.257105009434  0.256729940325  0.028692797874
  0.329394531250  0.246288385109  0.245924989546  0.028628485692
  0.330273437500  0.233280994480  0.232931524692  0.028563817979
  0.331152343750  0.218166063220  0.217832579362  0.028498878275
  0.332031250000  0.201039176286  0.200723522735  0.028433740891
  0.332910156250  0.182006984927  0.181710771443  0.028368470072
  0.333789062500  0.161185800483  0.160910388511  0.028303119475
  0.334667968750  0.138700105716  0.138446599880  0.028237731973
  0.335546875000  0.114681014819  0.114450259552  0.028172339749
  0.336425781250  0.089264712874  0.089057293959  0.028106964659
  0.337304687500  0.062590904159  0.062407154827  0.028041618821
  0.338183593750  0.034801296649  0.034641307790  0.027976305385
  0.339062500000  0.006038147338  0.005901781277  0.027911019441
  0.339941406250 -0.023557110201 -0.023670202933  0.027845749010
  0.340820312500 -0.053845138099 -0.053935499634  0.027780476079
  0.341699218750 -0.084689852143 -0.084758196404  0.027715177645
  0.342578125000 -0.115959454937 -0.116006645637  0.027649826731
  0.343457031250 -0.147527337506 -0.147554365592  0.027584393344
  0.344335937500 -0.179272846001 -0.179280807072  0.027518845359
  0.345214843750 -0.211081913365 -0.211071985550  0.027453149321
  0.346093750000 -0.242847558649 -0.242820981320  0.027387271140
  0.346972656250 -0.274470259055 -0.274428312739  0.027321176700
  0.347851562500 -0.305858201838 -0.305802189570  0.027254832355
  0.348730468750 -0.336927424748 -0.336858655073  0.027188205343
  0.349609375000 -0.367601854879 -0.367521626624  0.027121264108
  0.350488281250 -0.397813256565 -0.397722845452  0.027053978544
  0.351367187500 -0.427501099389 -0.427401746512  0.026986320163
  0.352246093750 -0.456612357476 -0.456505259609  0.026918262217
  0.353125000000 -0.485101251092 -0.484987552768  0.026849779751
  0.354003906250 -0.512928941165 -0.512809728421  0.026780849632
  0.354882812500 -0.540063186794 -0.539939482480  0.026711450527
  0.355761718750 -0.566477975103 -0.566350735610  0.026641562871
  0.356640625000 -0.592153132006 -0.592023245273  0.026571168801
  0.357519531250 -0.617073921575 -0.616942206237  0.026500252087
  0.358398437500 -0.641230640854 -0.641097846365  0.026428798044
  0.359277343750 -0.664618216017 -0.664485023629  0.026356793447
  0.360156250000 -0.687235804961 -0.687102829395  0.026284226439
  0.361035156250 -0.709086410535 -0.708954202236  0.026211086435
  0.361914062500 -0.730176507848 -0.730045555697  0.026137364033
  0.362792968750 -0.750515688367 -0.750386422742  0.026063050931
  0.363671875000 -0.770116322830 -0.769989118910  0.025988139834
  0.364550781250 -0.788993244383 -0.788868425637  0.025912624382
  0.365429687500 -0.807163452848 -0.807041294601  0.025836499073
  0.366308593750 -0.824645840478 -0.824526573514  0.025759759191
  0.367187500000 -0.841460939167 -0.841344753310  0.025682400743
  0.368066406250 -0.857630688705 -0.857517736326  0.025604420396
