radius      S_expected         S_actual            Error 
  0.100000000000  0.207031273120  0.207030557721  0.346169685413
  0.100878906250  0.207715012433  0.207715370123  0.346855797474
  0.101757812500  0.208359089214  0.208359446870  0.347547249286
  0.102636718750  0.208964584959  0.208964942583  0.348237500340
  0.103515625000  0.209532544471  0.209532902067  0.348920130058
  0.104394531250  0.210063977405  0.210064334978  0.349588924174
  0.105273437500  0.210559859744  0.210560217296  0.350237953764
  0.106152343750  0.211021135185  0.211021492720  0.350861644587
  0.107031250000  0.211448716471  0.211449073993  0.351454834985
  0.107910156250  0.211843486651  0.211843844164  0.352012821245
  0.108789062500  0.212206300281  0.212206657788  0.352531389971
  0.109667968750  0.212537984565  0.212538342070  0.353006837660
  0.110546875000  0.212839340448  0.212839697953  0.353435978178
  0.111425781250  0.213111143645  0.213111501155  0.353816139286
  0.112304687500  0.213354145636  0.213354503155  0.354145149655
  0.113183593750  0.213569074607  0.213569432138  0.354421317962
  0.114062500000  0.213756636343  0.213756993890  0.354643405768
  0.114941406250  0.213917515093  0.213917872659  0.354810595798
  0.115820312500  0.214052374382  0.214052731970  0.354922457161
  0.116699218750  0.214161857795  0.214162215410  0.354978908869
  0.117578125000  0.214246589723  0.214246947368  0.354980182829
  0.118457031250  0.214307176077  0.214307533754  0.354926787265
  0.119335937500  0.214344204965  0.214344562679  0.354819471338
  0.120214843750  0.214358247349  0.214358605103  0.354659191510
  0.121093750000  0.214349857665  0.214350215463  0.354447080068
  0.121972656250  0.214319574421  0.214319932265  0.354184416036
  0.122851562500  0.214267920765  0.214268278659  0.353872598605
  0.123730468750  0.214195405034  0.214195762981  0.353513123115
  0.124609375000  0.214102521275  0.214102879279  0.353107559533
  0.125488281250  0.213989749748  0.213990107813  0.352657533330
  0.126367187500  0.213857557406  0.213857915534  0.352164708628
  0.127246093750  0.213706398353  0.213706756548  0.351630773444
  0.128125000000  0.213536714289  0.213537072554  0.351057426875
  0.129003906250  0.213348934931  0.213349293269  0.350446368040
  0.129882812500  0.213143478418  0.213143836833  0.349799286611
  0.130761718750  0.212920751704  0.212921110200  0.349117854766
  0.131640625000  0.212681150931  0.212681509510  0.348403720421
  0.132519531250  0.212425061787  0.212425420451  0.347658501577
  0.133398437500  0.212152859850  0.212153218604  0.346883781668
  0.134277343750  0.211864910924  0.211865269771  0.346081105788
  0.135156250000  0.211561571354  0.211561930296  0.345251977678
  0.136035156250  0.211243188331  0.211243547372  0.344397857391
  0.136914062500  0.210910100192  0.210910459334  0.343520159540
  0.137792968750  0.210562636695  0.210562995942  0.342620252056
  0.138671875000  0.210201119298  0.210201478654  0.341699455382
  0.139550781250  0.209825861421  0.209826220887  0.340759042054
  0.140429687500  0.209437168691  0.209437528271  0.339800236604
  0.141308593750  0.209035339194  0.209035698891  0.338824215743
  0.142187500000  0.208620663703  0.208621023519  0.337832108779
  0.143066406250  0.208193425903  0.208193785842  0.336824998245
  0.143945312500  0.207753902611  0.207754262676  0.335803920680
  0.144824218750  0.207302363984  0.207302724178  0.334769867568
  0.145703125000  0.206839073720  0.206839434044  0.333723786371
  0.146582031250  0.206364289249  0.206364649708  0.332666581673
  0.147460937500  0.205878261926  0.205878622522  0.331599116383
  0.148339843750  0.205381237209  0.205381597944  0.330522212997
  0.149218750000  0.204873454830  0.204873815708  0.329436654907
  0.150097656250  0.204355148970  0.204355509993  0.328343187727
  0.150976562500  0.203826548412  0.203826909583  0.327242520643
  0.151855468750  0.203287876708  0.203288238029  0.326135327766
  0.152734375000  0.202739352320  0.202739713795  0.325022249482
  0.153613281250  0.202181188773  0.202181550404  0.323903893798
  0.154492187500  0.201613594793  0.201613956582  0.322780837662
  0.155371093750  0.201036774444  0.201037136393  0.321653628277
  0.156250000000  0.200450927257  0.200451289370  0.320522784375
  0.157128906250  0.199856248361  0.199856610640  0.319388797473
  0.158007812500  0.199252928605  0.199253291052  0.318252133093
  0.158886718750  0.198641154673  0.198641517291  0.317113231949
  0.159765625000  0.198021109204  0.198021471996  0.315972511099
  0.160644531250  0.197392970899  0.197393333867  0.314830365056
  0.161523437500  0.196756914632  0.196757277778  0.313687166872
  0.162402343750  0.196113111551  0.196113474877  0.312543269168
  0.163281250000  0.195461729178  0.195462092687  0.311399005138
  0.164160156250  0.194802931512  0.194803295206  0.310254689509
  0.165039062500  0.194136879114  0.194137242996  0.309110619464
  0.165917968750  0.193463729209  0.193464093280  0.307967075521
  0.166796875000  0.192783635763  0.192784000026  0.306824322388
  0.167675781250  0.192096749579  0.192097114036  0.305682609765
  0.168554687500  0.191403218373  0.191403583025  0.304542173120
  0.169433593750  0.190703186855  0.190703551706  0.303403234427
  0.170312500000  0.189996796811  0.189997161862  0.302266002872
  0.171191406250  0.189284187173  0.189284552426  0.301130675519
  0.172070312500  0.188565494096  0.188565859553  0.299997437954
  0.172949218750  0.187840851027  0.187841216691  0.298866464886
  0.173828125000  0.187110388774  0.187110754645  0.297737920731
  0.174707031250  0.186374235572  0.186374601654  0.296611960155
  0.175585937500  0.185632517149  0.185632883442  0.295488728597
  0.176464843750  0.184885356787  0.184885723295  0.294368362764
  0.177343750000  0.184132875384  0.184133242108  0.293250991097
  0.178222656250  0.183375191514  0.183375558455  0.292136734216
  0.179101562500  0.182612421479  0.182612788640  0.291025705337
  0.179980468750  0.181844679373  0.181845046754  0.289918010678
  0.180859375000  0.181072077127  0.181072444731  0.288813749825
  0.181738281250  0.180294724568  0.180295092396  0.287713016096
  0.182617187500  0.179512729466  0.179513097520  0.286615896872
  0.183496093750  0.178726197586  0.178726565868  0.285522473916
  0.184375000000  0.177935232734  0.177935601245  0.284432823675
  0.185253906250  0.177139936803  0.177140305546  0.283347017560
  0.186132812500  0.176340409822  0.176340778797  0.282265122212
  0.187011718750  0.175536749996  0.175537119204  0.281187199756
  0.187890625000  0.174729053749  0.174729423193  0.280113308037
  0.188769531250  0.173917415768  0.173917785449  0.279043500838
  0.189648437500  0.173101929042  0.173102298961  0.277977828097
  0.190527343750  0.172282684901  0.172283055059  0.276916336095
  0.191406250000  0.171459773053  0.171460143452  0.275859067648
  0.192285156250  0.170633281625  0.170633652265  0.274806062276
  0.193164062500  0.169803297193  0.169803668077  0.273757356363
  0.194042968750  0.168969904825  0.168970275953  0.272712983314
  0.194921875000  0.168133188106  0.168133559480  0.271672973691
  0.195800781250  0.167293229180  0.167293600800  0.270637355350
  0.196679687500  0.166450108775  0.166450480643  0.269606153559
  0.197558593750  0.165603906239  0.165604278356  0.268579391116
  0.198437500000  0.164754699570  0.164755071937  0.267557088450
  0.199316406250  0.163902565443  0.163902938062  0.266539263727
  0.200195312500  0.163047579243  0.163047952113  0.265525932930
  0.201074218750  0.162189815089  0.162190188213  0.264517109950
  0.201953125000  0.161329345867  0.161329719245  0.263512806657
  0.202832031250  0.160466243250  0.160466616882  0.262513032968
  0.203710937500  0.159600577729  0.159600951617  0.261517796915
  0.204589843750  0.158732418636  0.158732792781  0.260527104693
  0.205468750000  0.157861834172  0.157862208574  0.259540960715
  0.206347656250  0.156988891425  0.156989266085  0.258559367655
  0.207226562500  0.156113656401  0.156114031319  0.257582326480
  0.208105468750  0.155236194039  0.155236569217  0.256609836489
  0.208984375000  0.154356568241  0.154356943679  0.255641895336
  0.209863281250  0.153474841887  0.153475217586  0.254678499048
  0.210742187500  0.152591076861  0.152591452821  0.253719642044
  0.211621093750  0.151705334070  0.151705710292  0.252765317142
  0.212500000000  0.150817673461  0.150818049946  0.251815515566
  0.213378906250  0.149928154048  0.149928530795  0.250870226942
  0.214257812500  0.149036833923  0.149037210933  0.249929439291
  0.215136718750  0.148143770280  0.148144147554  0.248993139022
  0.216015625000  0.147249019430  0.147249396968  0.248061310910
  0.216894531250  0.146352636822  0.146353014625  0.247133938074
  0.217773437500  0.145454677058  0.145455055125  0.246211001953
  0.218652343750  0.144555193910  0.144555572242  0.245292482266
  0.219531250000  0.143654240336  0.143654618934  0.244378356980
  0.220410156250  0.142751868499  0.142752247362  0.243468602260
  0.221289062500  0.141848129779  0.141848508908  0.242563192420
  0.222167968750  0.140943074791  0.140943454185  0.241662099867
  0.223046875000  0.140036753397  0.140037133058  0.240765295036
  0.223925781250  0.139129214726  0.139129594653  0.239872746325
  0.224804687500  0.138220507181  0.138220887374  0.238984420017
  0.225683593750  0.137310678458  0.137311058917  0.238100280196
  0.226562500000  0.136399775559  0.136400156284  0.237220288663
  0.227441406250  0.135487844803  0.135488225794  0.236344404836
  0.228320312500  0.134574931841  0.134575313099  0.235472585650
  0.229199218750  0.133661081669  0.133661463192  0.234604785442
  0.230078125000  0.132746338637  0.132746720426  0.233740955836
  0.230957031250  0.131830746465  0.131831128519  0.232881045616
  0.231835937500  0.130914348253  0.130914730573  0.232025000587
  0.232714843750  0.129997186493  0.129997569078  0.231172763436
  0.233593750000  0.129079303078  0.129079685928  0.230324273577
  0.234472656250  0.128160739318  0.128161122433  0.229479466988
  0.235351562500  0.127241535945  0.127241919324  0.228638276038
  0.236230468750  0.126321733127  0.126322116770  0.227800629309
  0.237109375000  0.125401370478  0.125401754384  0.226966451399
  0.237988281250  0.124480487066  0.124480871235  0.226135662720
  0.238867187500  0.123559121425  0.123559505857  0.225308179286
  0.239746093750  0.122637311564  0.122637696259  0.224483912482
  0.240625000000  0.121715094977  0.121715479933  0.223662768830
  0.241503906250  0.120792508648  0.120792893865  0.222844649735
  0.242382812500  0.119869589067  0.119869974545  0.222029451227
  0.243261718750  0.118946372232  0.118946757970  0.221217063678
  0.244140625000  0.118022893664  0.118023279661  0.220407371521
  0.245019531250  0.117099188407  0.117099574663  0.219600252938
  0.245898437500  0.116175291046  0.116175677560  0.218795579550
  0.246777343750  0.115251235707  0.115251622478  0.217993216083
  0.247656250000  0.114327056070  0.114327443097  0.217193020022
  0.248535156250  0.113402785373  0.113403172655  0.216394841253
  0.249414062500  0.112478456421  0.112478843958  0.215598521687
  0.250292968750  0.111554101594  0.111554489386  0.214803894873
  0.251171875000  0.110629752856  0.110630140901  0.214010785591
  0.252050781250  0.109705441755  0.109705830053  0.213219009438
  0.252929687500  0.108781199439  0.108781587987  0.212428372399
  0.253808593750  0.107857056655  0.107857445454  0.211638670393
  0.254687500000  0.106933043760  0.106933432808  0.210849688829
  0.255566406250  0.106009190727  0.106009580024  0.210061202126
  0.256445312500  0.105085527151  0.105085916695  0.209272973239
  0.257324218750  0.104162082253  0.104162472043  0.208484753171
  0.258203125000  0.103238884889  0.103239274925  0.207696280473
  0.259082031250  0.102315963554  0.102316353834  0.206907280744
  0.259960937500  0.101393346391  0.101393736914  0.206117466127
  0.260839843750  0.100471061191  0.100471451956  0.205326534802
  0.261718750000  0.099549135405  0.099549526410  0.204534170480
  0.262597656250  0.098627596143  0.098627987388  0.203740041912
  0.263476562500  0.097706470186  0.097706861669  0.202943802399
  0.264355468750  0.096785783986  0.096786175706  0.202145089320
  0.265234375000  0.095865563673  0.095865955628  0.201343523689
  0.266113281250  0.094945835061  0.094946227250  0.200538709725
  0.266992187500  0.094026623651  0.094027016073  0.199730234473
  0.267871093750  0.093107954637  0.093108347291  0.198917667459
  0.268750000000  0.092189852912  0.092190245797  0.198100560394
  0.269628906250  0.091272343070  0.091272736183  0.197278446954
  0.270507812500  0.090355449410  0.090355842751  0.196450842619
  0.271386718750  0.089439195946  0.089439589512  0.195617244615
  0.272265625000  0.088523606404  0.088524000194  0.194777131939
  0.273144531250  0.087608704232  0.087609098245  0.193929965521
  0.274023437500  0.086694512600  0.086694906835  0.193075188505
  0.274902343750  0.085781054409  0.085781448863  0.192212226692
  0.275781250000  0.084868352289  0.084868746961  0.191340489155
  0.276660156250  0.083956428608  0.083956823497  0.190459369047
  0.277539062500  0.083045305474  0.083045700578  0.189568244640
  0.278417968750  0.082135004737  0.082135400055  0.188666480594
  0.279296875000  0.081225547998  0.081225943527  0.187753429520
  0.280175781250  0.080316956604  0.080317352344  0.186828433832
  0.281054687500  0.079409251662  0.079409647610  0.185890827939
  0.281933593750  0.078502454034  0.078502850189  0.184939940804
  0.282812500000  0.077596584345  0.077596980704  0.183975098904
  0.283691406250  0.076691662984  0.076692059547  0.182995629620
  0.284570312500  0.075787710110  0.075788106874  0.182000865095
  0.285449218750  0.074884745652  0.074885142615  0.180990146594
  0.286328125000  0.073982789315  0.073983186476  0.179962829389
  0.287207031250  0.073081860582  0.073082257939  0.178918288209
  0.288085937500  0.072181978717  0.072182376268  0.177855923270
  0.288964843750  0.071283162767  0.071283560510  0.176775166904
  0.289843750000  0.070385431568  0.070385829501  0.175675490807
  0.290722656250  0.069488803744  0.069489201866  0.174556413894
  0.291601562500  0.068593297714  0.068593696022  0.173417510764
  0.292480468750  0.067698931692  0.067699330184  0.172258420733
  0.293359375000  0.066805723688  0.066806122363  0.171078857414
  0.294238281250  0.065913691518  0.065914090373  0.169878618745
  0.295117187500  0.065022852797  0.065023251831  0.168657597408
  0.295996093750  0.064133224949  0.064133624160  0.167415791494
  0.296875000000  0.063244825207  0.063245224592  0.166153315263
  0.297753906250  0.062357670614  0.062358070172  0.164870409815
  0.298632812500  0.061471778030  0.061472177758  0.163567453429
  0.299511718750  0.060587164127  0.060587564024  0.162244971281
  0.300390625000  0.059703845400  0.059704245463  0.160903644246
  0.301269531250  0.058821838163  0.058822238391  0.159544316366
  0.302148437500  0.057941158553  0.057941558944  0.158168000603
  0.303027343750  0.057061822536  0.057062223086  0.156775882394
  0.303906250000  0.056183845901  0.056184246609  0.155369320514
  0.304785156250  0.055307244271  0.055307645136  0.153949844743
  0.305664062500  0.054432033101  0.054432434119  0.152519149804
  0.306542968750  0.053558227678  0.053558628848  0.151079085066
  0.307421875000  0.052685843128  0.052686244447  0.149631639584
  0.308300781250  0.051814894414  0.051815295881  0.148178922067
  0.309179687500  0.050945396342  0.050945797953  0.146723135565
  0.310058593750  0.050077363557  0.050077765311  0.145266546781
  0.310937500000  0.049210810551  0.049211212446  0.143811450144
  0.311816406250  0.048345751661  0.048346153695  0.142360127071
  0.312695312500  0.047482201074  0.047482603244  0.140914801104
  0.313574218750  0.046620172826  0.046620575130  0.139477589979
  0.314453125000  0.045759680805  0.045760083241  0.138050456007
  0.315332031250  0.044900738753  0.044901141318  0.136635156498
  0.316210937500  0.044043360267  0.044043762960  0.135233196224
  0.317089843750  0.043187558802  0.043187961620  0.133845784169
  0.317968750000  0.042333347672  0.042333750613  0.132473796903
  0.318847656250  0.041480740051  0.041481143112  0.131117750870
  0.319726562500  0.040629748976  0.040630152155  0.129777785732
  0.320605468750  0.039780387346  0.039780790642  0.128453660480
  0.321484375000  0.038932667929  0.038933071338  0.127144763516
  0.322363281250  0.038086603357  0.038087006878  0.125850137198
  0.323242187500  0.037242206133  0.037242609762  0.124568516518
  0.324121093750  0.036399488627  0.036399892363  0.123298380771
  0.325000000000  0.035558463085  0.035558866925  0.122038016189
  0.325878906250  0.034719141622  0.034719545565  0.120785586842
  0.326757812500  0.033881536230  0.033881940273  0.119539210489
  0.327636718750  0.033045658777  0.033046062917  0.118297035797
  0.328515625000  0.032211521008  0.032211925243  0.117057317202
  0.329394531250  0.031379134546  0.031379538875  0.115818483947
  0.330273437500  0.030548510897  0.030548915316  0.114579200218
  0.331152343750  0.029719661445  0.029720065952  0.113338413962
  0.332031250000  0.028892597459  0.028893002053  0.112095392742
  0.332910156250  0.028067330093  0.028067734770  0.110849745786
  0.333789062500  0.027243870385  0.027244275144  0.109601432239
  0.334667968750  0.026422229261  0.026422634098  0.108350756342
  0.335546875000  0.025602417533  0.025602822447  0.107098350874
  0.336425781250  0.024784445905  0.024784850893  0.105845150660
  0.337304687500  0.023968324970  0.023968730030  0.104592358220
  0.338183593750  0.023154065213  0.023154470342  0.103341403763
  0.339062500000  0.022341677012  0.022342082209  0.102093901679
  0.339941406250  0.021531170640  0.021531575902  0.100851605580
  0.340820312500  0.020722556264  0.020722961589  0.099616363647
  0.341699218750  0.019915843948  0.019916249333  0.098390075807
  0.342578125000  0.019111043653  0.019111449097  0.097174653908
  0.343457031250  0.018308165241  0.018308570740  0.095971985767
  0.344335937500  0.017507218470  0.017507624022  0.094783903653
  0.345214843750  0.016708213001  0.016708618605  0.093612157507
  0.346093750000  0.015911158398  0.015911564051  0.092458392985
  0.346972656250  0.015116064126  0.015116469825  0.091324134197
  0.347851562500  0.014322939555  0.014323345298  0.090210770907
  0.348730468750  0.013531793959  0.013532199745  0.089119549835
  0.349609375000  0.012742636519  0.012743042345  0.088051569646
  0.350488281250  0.011955476324  0.011955882187  0.087007779172
  0.351367187500  0.011170322369  0.011170728267  0.085988978403
  0.352246093750  0.010387183559  0.010387589490  0.084995821793
  0.353125000000  0.009606068709  0.009606474671  0.084028823444
  0.354003906250  0.008826986545  0.008827392536  0.083088363764
  0.354882812500  0.008049945705  0.008050351722  0.082174697243
  0.355761718750  0.007274954740  0.007275360781  0.081287961009
  0.356640625000  0.006502022113  0.006502428176  0.080428183897
  0.357519531250  0.005731156204  0.005731562286  0.079595295778
  0.358398437500  0.004962365307  0.004962771407  0.078789136960
  0.359277343750  0.004195657633  0.004196063748  0.078009467477
  0.360156250000  0.003431041311  0.003431447439  0.077255976154
  0.361035156250  0.002668524387  0.002668930525  0.076528289328
  0.361914062500  0.001908114825  0.001908520973  0.075825979157
  0.362792968750  0.001149820512  0.001150226666  0.075148571453
  0.363671875000  0.000393649254  0.000394055412  0.074495553015
  0.364550781250 -0.000360391223 -0.000359985062  0.073866378426
  0.365429687500 -0.001112293267 -0.001111887106  0.073260476309
  0.366308593750 -0.001862049307 -0.001861643148  0.072677255057
  0.367187500000 -0.002609651845 -0.002609245690  0.072116108028
  0.368066406250 -0.003355093459 -0.003354687310  0.071576418237
