radius      S_expected         S_actual            Error 
  0.100000000000  0.000000000000  0.000000000000  0.035274432622
  0.101757812500  0.000254099619  0.000253333717  0.039937259754
  0.103515625000  0.000491474013  0.000490119708  0.044568104966
  0.105273437500  0.000700277489  0.000698634571  0.049143594385
  0.107031250000  0.000871925251  0.000870343431  0.053643764278
  0.108789062500  0.001001724349  0.001000528299  0.058053519189
  0.110546875000  0.001088833121  0.001088265496  0.062363355849
  0.112304687500  0.001135677586  0.001135870743  0.066569359783
  0.114062500000  0.001147047993  0.001148024062  0.070672612045
  0.115820312500  0.001129109354  0.001130800667  0.074678213675
  0.117578125000  0.001088508425  0.001090787655  0.078594143944
  0.119335937500  0.001031682025  0.001034392840  0.082430132408
  0.121093750000  0.000964398784  0.000967381149  0.086196667535
  0.122851562500  0.000891514971  0.000894622698  0.089904206249
  0.124609375000  0.000816898367  0.000820009010  0.093562601224
  0.126367187500  0.000743467240  0.000746485819  0.097180730707
  0.128125000000  0.000673296807  0.000676155263  0.100766298241
  0.129882812500  0.000607756347  0.000610410495  0.104325763462
  0.131640625000  0.000547651730  0.000550077068  0.107864366360
  0.133398437500  0.000493358125  0.000495545430  0.111386212452
  0.135156250000  0.000444935170  0.000446886432  0.114894392993
  0.136914062500  0.000402221966  0.000403946907  0.118391120925
  0.138671875000  0.000364912317  0.000366425597  0.121877869127
  0.140429687500  0.000332612300  0.000333931366  0.125355502236
  0.142187500000  0.000304882888  0.000306026396  0.128824396898
  0.143945312500  0.000281270474  0.000282257173  0.132284547908
  0.145703125000  0.000261327897  0.000262175887  0.135735659490
  0.147460937500  0.000244628231  0.000245354499  0.139177222079
  0.149218750000  0.000230773195  0.000231393353  0.142608575685
  0.150976562500  0.000219397661  0.000219925830  0.146028961240
  0.152734375000  0.000210171412  0.000210620206  0.149437561496
  0.154492187500  0.000202799020  0.000203179600  0.152833532998
  0.156250000000  0.000197018506  0.000197340661  0.156216030589
  0.158007812500  0.000192599232  0.000192871496  0.159584225753
  0.159765625000  0.000189339393  0.000189569162  0.162937319944
  0.161523437500  0.000187063319  0.000187256976  0.166274553896
  0.163281250000  0.000185618777  0.000185781805  0.169595213749
  0.165039062500  0.000184874343  0.000185011441  0.172898634690
  0.166796875000  0.000184716947  0.000184832126  0.176184202688
  0.168554687500  0.000185049594  0.000185146272  0.179451354791
  0.170312500000  0.000185789305  0.000185870387  0.182699578364
  0.172070312500  0.000186865258  0.000186933207  0.185928409569
  0.173828125000  0.000188217138  0.000188274042  0.189137431328
  0.175585937500  0.000189793685  0.000189841308  0.192326270965
  0.177343750000  0.000191551412  0.000191591244  0.195494597652
  0.179101562500  0.000193453492  0.000193486790  0.198642119790
  0.180859375000  0.000195468791  0.000195496613  0.201768582401
  0.182617187500  0.000197571031  0.000197594269  0.204873764589
  0.184375000000  0.000199738069  0.000199757471  0.207957477125
  0.186132812500  0.000201951277  0.000201967475  0.211019560180
  0.187890625000  0.000204195015  0.000204208536  0.214059881229
  0.189648437500  0.000206456175  0.000206467464  0.217078333152
  0.191406250000  0.000208723794  0.000208733225  0.220074832521
  0.193164062500  0.000210988735  0.000210996621  0.223049318095
  0.194921875000  0.000213243403  0.000213250008  0.226001749521
  0.196679687500  0.000215481511  0.000215487058  0.228932106239
  0.198437500000  0.000217697892  0.000217702569  0.231840386593
  0.200195312500  0.000219888329  0.000219892295  0.234726607152
  0.201953125000  0.000222049421  0.000222052813  0.237590802233
  0.203710937500  0.000224178477  0.000224181413  0.240433023641
  0.205468750000  0.000226273422  0.000226276005  0.243253340613
  0.207226562500  0.000228332732  0.000228335054  0.246051839984
  0.208984375000  0.000230355379  0.000230357524  0.248828626577
  0.210742187500  0.000232340800  0.000232342847  0.251583823822
  0.212500000000  0.000234288875  0.000234290901  0.254317574622
  0.214257812500  0.000236199923  0.000236202004  0.257030042471
  0.216015625000  0.000238074713  0.000238076930  0.259721412857
  0.217773437500  0.000239914494  0.000239916934  0.262391894946
  0.219531250000  0.000241721037  0.000241723796  0.265041723601
  0.221289062500  0.000243496703  0.000243499892  0.267671161733
  0.223046875000  0.000245244530  0.000245248276  0.270280503040
  0.224804687500  0.000246968345  0.000246972799  0.272870075163
  0.226562500000  0.000248672908  0.000248678249  0.275440243293
  0.228320312500  0.000250364092  0.000250370537  0.277991414293
  0.230078125000  0.000252049109  0.000252056916  0.280524041374
  0.231835937500  0.000253736779  0.000253746263  0.283038629394
  0.233593750000  0.000255437872  0.000255449413  0.285535740847
  0.235351562500  0.000257165516  0.000257179577  0.288016002614
  0.237109375000  0.000258935706  0.000258952851  0.290480113567
  0.238867187500  0.000260767915  0.000260788828  0.292928853107
  0.240625000000  0.000262685839  0.000262711355  0.295363090758
  0.242382812500  0.000264718315  0.000264749448  0.297783796907
  0.244140625000  0.000266900421  0.000266938408  0.300192054832
  0.245898437500  0.000269274826  0.000269321171  0.302589074144
  0.247656250000  0.000271893421  0.000271949956  0.304976205781
  0.249414062500  0.000274819310  0.000274888261  0.307354958726
  0.251171875000  0.000278129209  0.000278213288  0.309727018592
  0.252929687500  0.000281916377  0.000282018878  0.312094268263
  0.254687500000  0.000286294145  0.000286419073  0.314458810756
  0.256445312500  0.000291400208  0.000291552426  0.316822994494
  0.258203125000  0.000297401806  0.000297587218  0.319189441159
  0.259960937500  0.000304501987  0.000304727753  0.321561076306
  0.261718750000  0.000312947168  0.000313221967  0.323941162879
  0.263476562500  0.000323036241  0.000323370577  0.326333337768
  0.265234375000  0.000335131528  0.000335538100  0.328741651491
  0.266992187500  0.000349671917  0.000350166056  0.331170611037
  0.268750000000  0.000367188588  0.000367788767  0.333625225820
  0.270507812500  0.000388323755  0.000389052183  0.336111056608
  0.272265625000  0.000413852914  0.000414736217  0.338634267136
  0.274023437500  0.000444711109  0.000445781108  0.341201677976
  0.275781250000  0.000482023743  0.000483318310  0.343820821984
  0.277539062500  0.000527142383  0.000528706364  0.346500000418
  0.279296875000  0.000581685937  0.000583572105  0.349248338470
  0.281054687500  0.000647587300  0.000649857265  0.352075838585
  0.282812500000  0.000727145177  0.000729870150  0.354993429439
  0.284570312500  0.000823080092  0.000826341322  0.358013007896
  0.286328125000  0.000938592562  0.000942481185  0.361147470575
  0.288085937500  0.001077419806  0.001082035744  0.364410730806
  0.289843750000  0.001243885132  0.001249334496  0.367817715752
  0.291601562500  0.001442930960  0.001449321256  0.371384337256
  0.293359375000  0.001680122202  0.001687554444  0.375127428386
  0.295117187500  0.001961601354  0.001970157966  0.379064635787
  0.296875000000  0.002293970137  0.002303697458  0.383214255593
  0.298632812500  0.002684065505  0.002694949790  0.387594997793
  0.300390625000  0.003138591493  0.003150527771  0.392225660742
  0.302148437500  0.003663564942  0.003676319221  0.397124694096
  0.303906250000  0.004263536601  0.004276703910  0.402309625651
  0.305664062500  0.004940564726  0.004953528677  0.407796326616
  0.307421875000  0.005692952946  0.005704856676  0.413598092952
  0.309179687500  0.006513823829  0.006523566839  0.419724530665
  0.310937500000  0.007389686355  0.007395965076  0.426180254114
  0.312695312500  0.008299261305  0.008300670636  0.432963441818
  0.314453125000  0.009212929195  0.009208134240  0.440064344930
  0.316210937500  0.010093216663  0.010081186283  0.447463905077
  0.317968750000  0.010896682228  0.010876950049  0.455132698441
  0.319726562500  0.011577352746  0.011550244417  0.463030460499
  0.321484375000  0.012091494813  0.012058245913  0.471106435243
  0.323242187500  0.012403056741  0.012365757610  0.479300713504
  0.325000000000  0.012488743454  0.012450090385  0.487546575732
  0.326757812500  0.012341572874  0.012304467757  0.495773662552
  0.328515625000  0.011972020668  0.011939116762  0.503911614668
  0.330273437500  0.011406445821  0.011379758318  0.511893712732
  0.332031250000  0.010683195833  0.010663871024  0.519660047797
  0.333789062500  0.009847346431  0.009835625709  0.527159864005
  0.335546875000  0.008945243404  0.008940596172  0.534352896875
  0.337304687500  0.008019857170  0.008021215975  0.541209722545
  0.339062500000  0.007107561055  0.007113583183  0.547711282562
  0.340820312500  0.006236490306  0.006245786524  0.553847828000
  0.342578125000  0.005426282862  0.005437581610  0.559617537335
  0.344335937500  0.004688812038  0.004701053082  0.565025024910
  0.346093750000  0.004029484719  0.004041853068  0.570079896745
  0.347851562500  0.003448743465  0.003460661480  0.574795448826
  0.349609375000  0.002943519016  0.002954614595  0.579187552394
  0.351367187500  0.002508487842  0.002518552839  0.583273735278
  0.353125000000  0.002137075279  0.002146023556  0.587072447170
  0.354882812500  0.001822201986  0.001830032315  0.590602486456
  0.356640625000  0.001556803276  0.001563569240  0.593882563164
  0.358398437500  0.001334164007  0.001339951120  0.596930973462
  0.360156250000  0.001148113212  0.001153022489  0.599765364041
  0.361914062500  0.000993117897  0.000997254675  0.602402568015
  0.363671875000  0.000864308241  0.000867775033  0.604858497279
  0.365429687500  0.000757458922  0.000760351218  0.607148079060
  0.367187500000  0.000668944639  0.000671348738  0.609285226754
  0.368945312500  0.000595682378  0.000597674599  0.611282837057
  0.370703125000  0.000535068851  0.000536715595  0.613152806922
  0.372460937500  0.000484918393  0.000486276720  0.614906065125
  0.374218750000  0.000443404467  0.000444522936  0.616552614219
  0.375976562500  0.000409006422  0.000409926043  0.618101579525
  0.377734375000  0.000380462182  0.000381217379  0.619561262441
  0.379492187500  0.000356726951  0.000357346480  0.620939195985
  0.381250000000  0.000336937623  0.000337445408  0.622242200908
  0.383007812500  0.000320382436  0.000320798319  0.623476441151
  0.384765625000  0.000306475291  0.000306815685  0.624647477711
  0.386523437500  0.000294734161  0.000295012611  0.625760320263
  0.388281250000  0.000284763021  0.000284990688  0.626819476089
  0.390039062500  0.000276236793  0.000276422858  0.627828996039
  0.391796875000  0.000268888844  0.000269040850  0.628792517377
  0.393554687500  0.000262500619  0.000262624758  0.629713303471
  0.395312500000  0.000256893086  0.000256994434  0.630594280353
  0.397070312500  0.000251919661  0.000252002380  0.631438070244
  0.398828125000  0.000247460394  0.000247527890  0.632247022179
  0.400585937500  0.000243417170  0.000243472232  0.633023239863
  0.402343750000  0.000239709778  0.000239754686  0.633768606959
  0.404101562500  0.000236272669  0.000236309291  0.634484809960
  0.405859375000  0.000233052309  0.000233082168  0.635173358842
  0.407617187500  0.000230004993  0.000230029336  0.635835605670
  0.409375000000  0.000227095067  0.000227114913  0.636472761324
  0.411132812500  0.000224293463  0.000224309643  0.637085910517
  0.412890625000  0.000221576501  0.000221589696  0.637676025260
  0.414648437500  0.000218924912  0.000218935677  0.638243976911
  0.416406250000  0.000216323033  0.000216331822  0.638790546944
  0.418164062500  0.000213758153  0.000213765336  0.639316436574
  0.419921875000  0.000211219977  0.000211225860  0.639822275331
  0.421679687500  0.000208700193  0.000208705024  0.640308628702
  0.423437500000  0.000206192110  0.000206196092  0.640776004930
  0.425195312500  0.000203690369  0.000203693673  0.641224861049
  0.426953125000  0.000201190713  0.000201193476  0.641655608243
  0.428710937500  0.000198689788  0.000198692128  0.642068616588
  0.430468750000  0.000196184996  0.000196187010  0.642464219246
  0.432226562500  0.000193674369  0.000193676140  0.642842716152
  0.433984375000  0.000191156470  0.000191158071  0.643204377268
  0.435742187500  0.000188630321  0.000188631815  0.643549445420
  0.437500000000  0.000186095339  0.000186096786  0.643878138777
  0.439257812500  0.000183551301  0.000183552756  0.644190652994
  0.441015625000  0.000180998309  0.000180999826  0.644487163055
  0.442773437500  0.000178436776  0.000178438409  0.644767824841
  0.444531250000  0.000175867422  0.000175869228  0.645032776441
  0.446289062500  0.000173291274  0.000173293316  0.645282139237
  0.448046875000  0.000170709691  0.000170712038  0.645516018765
  0.449804687500  0.000168124381  0.000168127111  0.645734505381
  0.451562500000  0.000165537446  0.000165540647  0.645937674731
  0.453320312500  0.000162951426  0.000162955203  0.646125588052
  0.455078125000  0.000160369365  0.000160373838  0.646298292297
  0.456835937500  0.000157794885  0.000157800197  0.646455820103
  0.458593750000  0.000155232281  0.000155238601  0.646598189606
  0.460351562500  0.000152686633  0.000152694157  0.646725404107
  0.462109375000  0.000150163935  0.000150172898  0.646837451604
  0.463867187500  0.000147671254  0.000147681933  0.646934304194
  0.465625000000  0.000145216912  0.000145229636  0.647015917349
  0.467382812500  0.000142810706  0.000142825862  0.647082229091
  0.469140625000  0.000140464151  0.000140482200  0.647133159069
  0.470898437500  0.000138190781  0.000138212265  0.647168607564
  0.472656250000  0.000136006483  0.000136032045  0.647188454453
  0.474414062500  0.000133929893  0.000133960288  0.647192558154
  0.476171875000  0.000131982841  0.000132018964  0.647180754614
  0.477929687500  0.000130190879  0.000130233780  0.647152856387
  0.479687500000  0.000128583865  0.000128634779  0.647108651888
  0.481445312500  0.000127196638  0.000127257016  0.647047904919
  0.483203125000  0.000126069778  0.000126141319  0.646970354594
  0.484960937500  0.000125250455  0.000125335147  0.646875715828
  0.486718750000  0.000124793380  0.000124893541  0.646763680593
  0.488476562500  0.000124761837  0.000124880166  0.646633920200
  0.490234375000  0.000125228820  0.000125368447  0.646486088926
  0.491992187500  0.000126278225  0.000126442771  0.646319829383
  0.493750000000  0.000128006106  0.000128199738  0.646134780117
  0.495507812500  0.000130521926  0.000130749421  0.645930586041
  0.497265625000  0.000133949755  0.000134216553  0.645706912414
  0.499023437500  0.000138429315  0.000138741573  0.645463463243
  0.500781250000  0.000144116734  0.000144481360  0.645200005126
  0.502539062500  0.000151184834  0.000151609496  0.644916397749
  0.504296875000  0.000159822671  0.000160315771  0.644612632408
  0.506054687500  0.000170234007  0.000170804595  0.644288880094
  0.507812500000  0.000182634228  0.000183291837  0.643945550843
  0.509570312500  0.000197245126  0.000197999494  0.643583366053
  0.511328125000  0.000214286789  0.000215147427  0.643203445470
  0.513085937500  0.000233965645  0.000234941210  0.642807410193
  0.514843750000  0.000256457571  0.000257554997  0.642397502496
  0.516601562500  0.000281884789  0.000283108119  0.641976722136
  0.518359375000  0.000310285238  0.000311634129  0.641548977056
  0.520117187500  0.000341573206  0.000343041108  0.641119243729
  0.521875000000  0.000375490466  0.000377062518  0.640693728473
  0.523632812500  0.000411548073  0.000413198885  0.640280015864
  0.525390625000  0.000448960666  0.000450652281  0.639887183520
  0.527148437500  0.000486577798  0.000488258329  0.639525854403
  0.528906250000  0.000522820666  0.000524424328  0.639208148897
  0.530664062500  0.000555637578  0.000557087005  0.638947490848
  0.532421875000  0.000582497082  0.000583708867  0.638758217057
  0.534179687500  0.000600442496  0.000601336620  0.638654942365
  0.535937500000  0.000606233261  0.000606746344  0.638651647482
  0.537695312500  0.000596593740  0.000596694699  0.638760489194
  0.539453125000  0.000568575136  0.000568280137  0.638990385344
  0.541210937500  0.000520009281  0.000519391224  0.639345497585
  0.542968750000  0.000449996416  0.000449183674  0.639823811572
  0.544726562500  0.000359331978  0.000358492668  0.640416074994
  0.546484375000  0.000250755601  0.000250067693  0.641105369401
  0.548242187500  0.000128916238  0.000128529436  0.641867536140
  0.550000000000  0.000000000000  0.000000000000  0.642672542274
  0.551757812500 -0.000128946939 -0.000128560136  0.643486681753
  0.553515625000 -0.000250877213 -0.000250189305  0.644275313471
  0.555273437500 -0.000359601280 -0.000358761970  0.645005706088
  0.557031250000 -0.000450464870 -0.000449652129  0.645649537590
  0.558789062500 -0.000520721692 -0.000520103635  0.646184692455
  0.560546875000 -0.000569568899 -0.000569273900  0.646596173862
  0.562304687500 -0.000597898676 -0.000597999635  0.646876140946
  0.564062500000 -0.000607871928 -0.000608385011  0.647023234198
  0.565820312500 -0.000602430853 -0.000603324978  0.647041434053
  0.567578125000 -0.000584845368 -0.000586057153  0.646938707538
  0.569335937500 -0.000558351274 -0.000559800701  0.646725655743
  0.571093750000 -0.000525901453 -0.000527505115  0.646414308214
  0.572851562500 -0.000490024437 -0.000491704968  0.646017142441
  0.574609375000 -0.000452769772 -0.000454461387  0.645546351249
  0.576367187500 -0.000415714761 -0.000417365573  0.645013343555
  0.578125000000 -0.000380008868 -0.000381580920  0.644428443307
  0.579882812500 -0.000346436880 -0.000347904782  0.643800743860
  0.581640625000 -0.000315487475 -0.000316836366  0.643138075867
  0.583398437500 -0.000287418832 -0.000288642161  0.642447052122
  0.585156250000 -0.000262316771 -0.000263414197  0.641733160000
  0.586914062500 -0.000240143568 -0.000241119133  0.641000879347
  0.588671875000 -0.000220777274 -0.000221637911  0.640253810079
  0.590429687500 -0.000204042319 -0.000204796687  0.639494798957
  0.592187500000 -0.000189732594 -0.000190390203  0.638726058991
  0.593945312500 -0.000177628329 -0.000178198916  0.637949277826
  0.595703125000 -0.000167508033 -0.000168001132  0.637165713495
  0.597460937500 -0.000159156602 -0.000159581264  0.636376277244
  0.599218750000 -0.000152370536 -0.000152735162  0.635581603967
  0.600976562500 -0.000146961013 -0.000147273271  0.634782111270
  0.602734375000 -0.000142755421 -0.000143022219  0.633978048383
  0.604492187500 -0.000139597817 -0.000139825312  0.633169536243
  0.606250000000 -0.000137348643 -0.000137542276  0.632356599991
  0.608007812500 -0.000135883970 -0.000136048517  0.631539195074
  0.609765625000 -0.000135094457 -0.000135234085  0.630717228014
  0.611523437500 -0.000134884155 -0.000135002484  0.629890572748
  0.613281250000 -0.000135169253 -0.000135269414  0.629059083366
  0.615039062500 -0.000135876836 -0.000135961527  0.628222603907
  0.616796875000 -0.000136943677 -0.000137015218  0.627380975796
  0.618554687500 -0.000138315121 -0.000138375499  0.626534043386
  0.620312500000 -0.000139944037 -0.000139994951  0.625681658004
  0.622070312500 -0.000141789879 -0.000141832779  0.624823680832
  0.623828125000 -0.000143817834 -0.000143853956  0.623959984859
  0.625585937500 -0.000145998064 -0.000146028459  0.623090456145
  0.627343750000 -0.000148305034 -0.000148330595  0.622214994550
  0.629101562500 -0.000150716922 -0.000150738406  0.621333514073
  0.630859375000 -0.000153215100 -0.000153233148  0.620445942908
  0.632617187500 -0.000155783684 -0.000155798841  0.619552223305
  0.634375000000 -0.000158409143 -0.000158421867  0.618652311302
  0.636132812500 -0.000161079957 -0.000161090637  0.617746176393
